1,280,2
298,577,2
595,874,1
730,1009,2
1070,1349,2
1369,1648,2
1667,1946,2
1960,2239,1
2112,2391,2
2463,2742,2
2765,3044,2
3056,3335,2
3351,3630,2
3641,3920,2
3927,4206,1
4061,4340,2
4402,4681,2
4688,4967,2
4976,5255,2
5261,5540,1
5414,5693,2
5765,6044,2
6066,6345,2
6356,6635,2
6651,6930,1
6803,7082,2
7147,7426,2
7446,7725,2
7735,8014,2
8014,8293,2
8290,8569,2
8574,8853,2
8860,9139,1
9013,9292,2
9351,9630,2
9637,9916,2
9914,10193,2
10190,10469,1
10342,10621,2
10671,10950,2
10948,11227,2
11223,11502,2
11482,11761,1
11621,11900,2
11948,12227,2
12224,12503,2
12495,12774,1
12637,12916,2
12969,13248,2
13252,13531,2
13531,13810,2
13815,14094,2
14103,14382,1
14256,14535,2
14598,14877,2
14898,15177,2
15199,15478,2
15492,15771,2
15789,16068,2
16087,16366,1
16222,16501,2
16566,16845,2
16866,17145,2
17156,17435,2
17440,17719,2
17724,18003,1
17876,18155,2
18218,18497,2
18512,18791,2
18808,19087,2
19103,19382,2
19390,19669,2
19682,19961,1
19817,20096,2
20159,20438,2
20456,20735,2
20752,21031,2
21043,21322,1
21181,21460,2
21522,21801,2
21821,22100,2
22112,22391,1
22264,22543,2
22623,22902,2
22928,23207,2
23223,23502,2
23522,23801,2
23819,24098,2
24110,24389,1
24264,24543,2
24613,24892,2
24915,25194,2
25208,25487,2
25502,25781,1
25654,25933,2
26001,26280,2
26302,26581,2
26597,26876,2
26886,27165,1
27040,27319,2
27391,27670,2
27691,27970,2
27983,28262,2
28273,28552,2
28565,28844,1
28702,28981,2
29043,29322,2
29342,29621,2
29635,29914,1
29788,30067,2
30135,30414,2
30436,30715,2
30723,31002,2
31013,31292,2
31301,31580,1
31456,31735,2
31805,32084,2
32102,32381,2
32389,32668,2
32677,32956,2
32964,33243,2
33250,33529,1
33404,33683,2
33753,34032,2
34049,34328,2
34345,34624,2
34629,34908,2
34910,35189,2
35188,35467,2
35471,35750,1
35627,35906,2
35984,36263,2
36296,36575,2
36599,36878,2
36897,37176,2
37186,37465,2
37477,37756,2
37766,38045,2
38055,38334,2
38344,38623,2
38632,38911,2
38923,39202,2
39213,39492,2
39500,39779,2
39790,40069,2
40079,40358,1
40215,40494,2
40548,40827,2
40836,41115,2
41123,41402,2
41402,41681,1
41538,41817,2
41874,42153,2
42160,42439,2
42442,42721,1
42595,42874,2
42940,43219,2
43233,43512,2
43529,43808,2
43826,44105,1
43961,44240,2
44308,44587,2
44622,44901,2
44922,45201,2
45218,45497,2
45506,45785,2
45791,46070,1
45926,46205,2
46269,46548,2
46559,46838,2
46847,47126,2
47129,47408,1
47269,47548,2
47607,47886,2
47907,48186,2
48208,48487,2
48499,48778,2
48792,49071,2
49090,49369,2
49382,49661,1
49522,49801,2
49870,50149,2
50163,50442,2
50454,50733,2
50750,51029,1
50885,51164,2
51224,51503,2
51511,51790,2
51803,52082,2
52092,52371,1
52233,52512,2
52565,52844,2
52861,53140,2
53153,53432,2
53435,53714,1
53586,53865,2
53932,54211,2
54218,54497,2
54506,54785,2
54796,55075,1
54934,55213,2
55280,55559,2
55579,55858,2
55867,56146,2
56155,56434,2
56441,56720,1
56576,56855,2
56913,57192,2
57207,57486,2
57497,57776,1
57632,57911,2
57970,58249,2
58264,58543,2
58553,58832,2
58837,59116,1
58972,59251,2
59319,59598,2
59609,59888,2
59894,60173,2
60186,60465,1
60321,60600,2
60663,60942,2
60957,61236,2
61249,61528,2
61538,61817,1
61678,61957,2
62022,62301,2
62323,62602,2
62614,62893,1
62767,63046,2
63112,63391,2
63409,63688,2
63697,63976,1
63832,64111,2
64173,64452,2
64460,64739,2
64746,65025,2
65026,65305,1
65178,65457,2
65523,65802,2
65821,66100,2
66107,66386,2
66396,66675,1
66532,66811,2
66873,67152,2
67167,67446,2
67455,67734,2
67735,68014,1
67872,68151,2
68213,68492,2
68506,68785,2
68793,69072,2
69078,69357,2
69365,69644,2
69646,69925,1
69783,70062,2
70125,70404,2
70415,70694,2
70695,70974,2
70974,71253,2
71258,71537,1
71397,71676,2
71769,72048,2
72076,72355,2
72361,72640,2
72648,72927,2
72935,73214,1
73072,73351,2
73408,73687,2
73707,73986,2
74001,74280,1
74154,74433,2
74503,74782,2
74805,75084,2
75092,75371,1
75229,75508,2
75577,75856,2
75872,76151,2
76162,76441,2
76451,76730,1
76588,76867,2
76942,77221,2
77235,77514,2
77528,77807,2
77813,78092,1
77950,78229,2
78317,78596,2
78602,78881,2
78884,79163,2
79168,79447,1
79303,79582,2
79623,79902,2
79892,80171,2
80170,80449,2
80454,80733,2
80737,81016,2
81019,81298,2
81307,81586,2
81599,81878,2
81886,82165,2
82177,82456,2
82464,82743,2
82746,83025,2
83032,83311,2
83318,83597,2
83605,83884,2
83893,84172,2
84184,84463,2
84466,84745,2
84751,85030,2
85038,85317,2
85324,85603,2
85608,85887,2
85898,86177,2
86192,86471,2
86481,86760,2
86772,87051,2
87063,87342,2
87349,87628,2
87637,87916,2
87922,88201,2
88202,88481,2
88473,88752,2
88754,89033,2
89033,89312,2
89317,89596,2
89605,89884,2
89893,90172,2
90181,90460,2
90468,90747,2
90757,91036,2
91045,91324,2
91328,91607,2
91612,91891,2
91894,92173,2
92179,92458,2
92466,92745,2
92758,93037,2
93049,93328,2
93341,93620,2
93630,93909,2
93916,94195,2
94202,94481,2
94488,94767,2
94768,95047,2
95054,95333,2
95340,95619,2
95622,95901,2
95910,96189,2
96199,96478,2
96486,96765,2
96777,97056,2
97069,97348,2
97356,97635,2
97643,97922,2
97927,98206,2
98211,98490,2
98495,98774,2
98781,99060,2
99060,99339,2
99344,99623,2
99628,99907,2
99911,1.0019e+05,2
1.002e+05,1.0047e+05,2
1.0048e+05,1.0076e+05,2
1.0077e+05,1.0105e+05,2
1.0105e+05,1.0133e+05,2
1.0134e+05,1.0162e+05,2
1.0162e+05,1.019e+05,2
1.019e+05,1.0218e+05,2
1.0217e+05,1.0245e+05,2
1.0244e+05,1.0272e+05,2
1.0271e+05,1.0299e+05,2
1.0298e+05,1.0326e+05,2
1.0325e+05,1.0353e+05,2
1.0352e+05,1.038e+05,2
1.038e+05,1.0408e+05,2
1.0408e+05,1.0436e+05,2
1.0436e+05,1.0464e+05,2
1.0464e+05,1.0492e+05,2
1.0492e+05,1.052e+05,2
1.052e+05,1.0548e+05,2
1.0548e+05,1.0576e+05,2
1.0576e+05,1.0604e+05,2
1.0604e+05,1.0632e+05,2
1.0632e+05,1.066e+05,2
1.066e+05,1.0688e+05,2
1.0688e+05,1.0716e+05,2
1.0716e+05,1.0744e+05,2
1.0745e+05,1.0773e+05,2
1.0773e+05,1.0801e+05,2
1.0801e+05,1.0829e+05,2
1.083e+05,1.0858e+05,2
1.0859e+05,1.0887e+05,2
1.0887e+05,1.0915e+05,2
1.0916e+05,1.0944e+05,2
1.0944e+05,1.0972e+05,2
1.0972e+05,1.0999e+05,2
1.1e+05,1.1027e+05,2
1.1028e+05,1.1056e+05,2
1.1056e+05,1.1084e+05,2
1.1085e+05,1.1113e+05,2
1.1113e+05,1.1141e+05,2
1.1142e+05,1.117e+05,2
1.117e+05,1.1198e+05,2
1.1198e+05,1.1226e+05,2
1.1226e+05,1.1254e+05,2
1.1254e+05,1.1282e+05,2
1.1282e+05,1.131e+05,2
1.131e+05,1.1338e+05,2
1.1338e+05,1.1366e+05,2
1.1365e+05,1.1393e+05,2
1.1393e+05,1.1421e+05,2
1.1421e+05,1.1449e+05,2
1.1449e+05,1.1477e+05,2
1.1477e+05,1.1504e+05,2
1.1504e+05,1.1532e+05,2
1.1532e+05,1.156e+05,2
1.156e+05,1.1587e+05,2
1.1587e+05,1.1615e+05,2
1.1615e+05,1.1642e+05,2
1.1643e+05,1.167e+05,2
1.167e+05,1.1698e+05,2
1.1698e+05,1.1726e+05,2
1.1726e+05,1.1754e+05,2
1.1754e+05,1.1782e+05,2
1.1782e+05,1.181e+05,2
1.181e+05,1.1838e+05,2
1.1838e+05,1.1866e+05,2
1.1866e+05,1.1894e+05,2
1.1894e+05,1.1922e+05,2
1.1921e+05,1.1949e+05,2
1.1949e+05,1.1977e+05,2
1.1977e+05,1.2005e+05,2
1.2005e+05,1.2033e+05,2
1.2034e+05,1.2062e+05,2
1.2062e+05,1.209e+05,2
1.209e+05,1.2118e+05,2
1.2118e+05,1.2146e+05,2
1.2147e+05,1.2175e+05,2
1.2176e+05,1.2203e+05,2
1.2204e+05,1.2232e+05,2
1.2233e+05,1.2261e+05,2
1.2261e+05,1.2289e+05,2
1.229e+05,1.2318e+05,2
1.2319e+05,1.2347e+05,2
1.2348e+05,1.2376e+05,2
1.2376e+05,1.2404e+05,2
1.2405e+05,1.2433e+05,2
1.2433e+05,1.2461e+05,2
1.246e+05,1.2488e+05,2
1.2488e+05,1.2516e+05,2
1.2516e+05,1.2544e+05,2
1.2544e+05,1.2572e+05,2
1.2571e+05,1.2599e+05,2
1.2599e+05,1.2627e+05,2
1.2627e+05,1.2655e+05,2
1.2655e+05,1.2683e+05,2
1.2683e+05,1.2711e+05,2
1.2711e+05,1.2739e+05,2
1.2739e+05,1.2767e+05,2
1.2767e+05,1.2795e+05,2
1.2795e+05,1.2823e+05,2
1.2823e+05,1.2851e+05,2
1.2851e+05,1.2879e+05,2
1.2879e+05,1.2907e+05,2
1.2907e+05,1.2935e+05,2
1.2935e+05,1.2963e+05,2
1.2964e+05,1.2992e+05,2
1.2992e+05,1.302e+05,2
1.302e+05,1.3048e+05,1
1.3034e+05,1.3061e+05,2
1.3067e+05,1.3095e+05,2
1.3095e+05,1.3123e+05,2
1.3123e+05,1.3151e+05,2
1.3152e+05,1.318e+05,2
1.318e+05,1.3208e+05,2
1.3208e+05,1.3236e+05,2
1.3236e+05,1.3264e+05,2
1.3264e+05,1.3292e+05,2
1.3293e+05,1.332e+05,2
1.3321e+05,1.3349e+05,2
1.335e+05,1.3378e+05,2
1.3379e+05,1.3407e+05,2
1.3407e+05,1.3435e+05,2
1.3436e+05,1.3464e+05,2
1.3464e+05,1.3492e+05,2
1.3493e+05,1.352e+05,2
1.3521e+05,1.3549e+05,2
1.3549e+05,1.3577e+05,2
1.3577e+05,1.3605e+05,2
1.3605e+05,1.3633e+05,2
1.3633e+05,1.3661e+05,2
1.3661e+05,1.3689e+05,2
1.3689e+05,1.3717e+05,2
1.3717e+05,1.3745e+05,2
1.3745e+05,1.3773e+05,2
1.3773e+05,1.3801e+05,2
1.38e+05,1.3828e+05,2
1.3828e+05,1.3855e+05,2
1.3856e+05,1.3884e+05,2
1.3884e+05,1.3911e+05,2
1.3912e+05,1.394e+05,2
1.3939e+05,1.3967e+05,2
1.3967e+05,1.3995e+05,2
1.3995e+05,1.4023e+05,2
1.4022e+05,1.405e+05,2
1.405e+05,1.4078e+05,2
1.4078e+05,1.4106e+05,2
1.4106e+05,1.4134e+05,2
1.4134e+05,1.4162e+05,1
1.4148e+05,1.4175e+05,2
1.4181e+05,1.4209e+05,2
1.421e+05,1.4238e+05,2
1.4239e+05,1.4266e+05,2
1.4267e+05,1.4295e+05,2
1.4295e+05,1.4323e+05,2
1.4323e+05,1.4351e+05,2
1.4351e+05,1.4379e+05,2
1.438e+05,1.4408e+05,2
1.4408e+05,1.4436e+05,2
1.4436e+05,1.4464e+05,2
1.4465e+05,1.4493e+05,2
1.4494e+05,1.4522e+05,2
1.4522e+05,1.455e+05,2
1.4551e+05,1.4579e+05,2
1.458e+05,1.4608e+05,2
1.4608e+05,1.4636e+05,2
1.4637e+05,1.4665e+05,2
1.4666e+05,1.4693e+05,1
1.4679e+05,1.4707e+05,2
1.4712e+05,1.474e+05,2
1.4741e+05,1.4769e+05,2
1.477e+05,1.4797e+05,2
1.4798e+05,1.4826e+05,2
1.4826e+05,1.4854e+05,2
1.4854e+05,1.4882e+05,2
1.4882e+05,1.491e+05,2
1.4911e+05,1.4939e+05,2
1.4939e+05,1.4967e+05,2
1.4968e+05,1.4996e+05,2
1.4997e+05,1.5025e+05,2
1.5025e+05,1.5053e+05,2
1.5053e+05,1.508e+05,2
1.5079e+05,1.5107e+05,2
1.5106e+05,1.5134e+05,2
1.5133e+05,1.5161e+05,2
1.516e+05,1.5188e+05,2
1.5188e+05,1.5216e+05,2
1.5215e+05,1.5243e+05,2
1.5243e+05,1.5271e+05,2
1.527e+05,1.5298e+05,2
1.5297e+05,1.5325e+05,2
1.5323e+05,1.5351e+05,2
1.535e+05,1.5378e+05,2
1.5375e+05,1.5403e+05,2
1.5403e+05,1.5431e+05,2
1.543e+05,1.5458e+05,2
1.5459e+05,1.5487e+05,2
1.5487e+05,1.5515e+05,2
1.5517e+05,1.5545e+05,2
1.5546e+05,1.5574e+05,2
1.5576e+05,1.5604e+05,2
1.5605e+05,1.5633e+05,1
1.5619e+05,1.5647e+05,2
1.5653e+05,1.5681e+05,2
1.5682e+05,1.571e+05,2
1.5711e+05,1.5739e+05,1
1.5726e+05,1.5754e+05,2
1.5761e+05,1.5789e+05,2
1.5791e+05,1.5818e+05,2
1.582e+05,1.5848e+05,2
1.5849e+05,1.5877e+05,1
1.5862e+05,1.589e+05,2
1.5896e+05,1.5924e+05,2
1.5927e+05,1.5954e+05,2
1.5956e+05,1.5984e+05,2
1.5986e+05,1.6013e+05,1
1.5999e+05,1.6027e+05,2
1.6034e+05,1.6062e+05,2
1.6065e+05,1.6093e+05,2
1.6095e+05,1.6123e+05,1
1.6109e+05,1.6137e+05,2
1.6144e+05,1.6172e+05,2
1.6174e+05,1.6202e+05,2
1.6204e+05,1.6232e+05,2
1.6234e+05,1.6262e+05,1
1.6247e+05,1.6275e+05,2
1.6281e+05,1.6309e+05,2
1.6311e+05,1.6339e+05,2
1.6341e+05,1.6368e+05,2
1.6369e+05,1.6397e+05,1
1.6385e+05,1.6413e+05,2
1.642e+05,1.6447e+05,2
1.6449e+05,1.6477e+05,2
1.6479e+05,1.6507e+05,2
1.6509e+05,1.6537e+05,2
1.6539e+05,1.6566e+05,2
1.6568e+05,1.6596e+05,2
1.6598e+05,1.6626e+05,2
1.6627e+05,1.6655e+05,2
1.6656e+05,1.6684e+05,2
1.6685e+05,1.6713e+05,2
1.6714e+05,1.6742e+05,2
1.6743e+05,1.6771e+05,2
1.6772e+05,1.6799e+05,1
1.6787e+05,1.6815e+05,2
1.6822e+05,1.685e+05,2
1.6852e+05,1.688e+05,2
1.6881e+05,1.6909e+05,2
1.691e+05,1.6938e+05,1
1.6926e+05,1.6954e+05,2
1.6961e+05,1.6989e+05,2
1.699e+05,1.7018e+05,2
1.7018e+05,1.7046e+05,2
1.7047e+05,1.7075e+05,2
1.7076e+05,1.7104e+05,1
1.7091e+05,1.7119e+05,2
1.7126e+05,1.7154e+05,2
1.7156e+05,1.7183e+05,2
1.7185e+05,1.7213e+05,2
1.7213e+05,1.7241e+05,2
1.7242e+05,1.727e+05,2
1.727e+05,1.7298e+05,1
1.7284e+05,1.7312e+05,2
1.7318e+05,1.7346e+05,2
1.7347e+05,1.7375e+05,2
1.7376e+05,1.7403e+05,2
1.7404e+05,1.7432e+05,1
1.7419e+05,1.7447e+05,2
1.7453e+05,1.7481e+05,2
1.7482e+05,1.751e+05,2
1.7511e+05,1.7539e+05,2
1.754e+05,1.7568e+05,2
1.7569e+05,1.7597e+05,1
1.7584e+05,1.7612e+05,2
1.7619e+05,1.7647e+05,2
1.7648e+05,1.7675e+05,2
1.7676e+05,1.7704e+05,2
1.7705e+05,1.7733e+05,1
1.772e+05,1.7748e+05,2
1.7754e+05,1.7782e+05,2
1.7783e+05,1.7811e+05,2
1.781e+05,1.7838e+05,1
1.7825e+05,1.7853e+05,2
1.7857e+05,1.7885e+05,2
1.7885e+05,1.7913e+05,2
1.7912e+05,1.794e+05,1
1.7927e+05,1.7955e+05,2
1.796e+05,1.7988e+05,2
1.7988e+05,1.8016e+05,2
1.8016e+05,1.8044e+05,1
1.8031e+05,1.8059e+05,2
1.8064e+05,1.8092e+05,2
1.8092e+05,1.812e+05,2
1.8118e+05,1.8146e+05,1
1.8133e+05,1.8161e+05,2
1.8166e+05,1.8194e+05,2
1.8194e+05,1.8221e+05,1
1.8209e+05,1.8237e+05,2
1.8243e+05,1.8271e+05,2
1.8272e+05,1.83e+05,2
1.83e+05,1.8328e+05,1
1.8314e+05,1.8342e+05,2
1.8348e+05,1.8376e+05,2
1.8378e+05,1.8406e+05,2
1.8407e+05,1.8435e+05,2
1.8435e+05,1.8463e+05,2
1.8464e+05,1.8492e+05,1
1.8478e+05,1.8506e+05,2
1.8512e+05,1.854e+05,2
1.8543e+05,1.8571e+05,2
1.8573e+05,1.8601e+05,2
1.8602e+05,1.863e+05,1
1.8615e+05,1.8643e+05,2
1.865e+05,1.8678e+05,2
1.8679e+05,1.8707e+05,2
1.8708e+05,1.8736e+05,1
1.8722e+05,1.875e+05,2
1.8757e+05,1.8785e+05,2
1.8787e+05,1.8815e+05,2
1.8817e+05,1.8845e+05,1
1.883e+05,1.8858e+05,2
1.8866e+05,1.8894e+05,2
1.8896e+05,1.8924e+05,2
1.8926e+05,1.8954e+05,2
1.8956e+05,1.8984e+05,2
1.8986e+05,1.9014e+05,2
1.9015e+05,1.9043e+05,2
1.9045e+05,1.9073e+05,2
1.9075e+05,1.9103e+05,2
1.9105e+05,1.9133e+05,2
1.9134e+05,1.9162e+05,2
1.9164e+05,1.9192e+05,2
1.9193e+05,1.9221e+05,2
1.9223e+05,1.9251e+05,2
1.9252e+05,1.928e+05,2
1.9281e+05,1.9309e+05,1
1.9295e+05,1.9323e+05,2
1.933e+05,1.9358e+05,2
1.936e+05,1.9388e+05,2
1.939e+05,1.9418e+05,2
1.9419e+05,1.9446e+05,1
1.9433e+05,1.9461e+05,2
1.9467e+05,1.9495e+05,2
1.9497e+05,1.9525e+05,2
1.9526e+05,1.9554e+05,2
1.9555e+05,1.9583e+05,1
1.9569e+05,1.9596e+05,2
1.9603e+05,1.9631e+05,2
1.9633e+05,1.9661e+05,2
1.9662e+05,1.969e+05,2
1.9691e+05,1.9719e+05,1
1.9705e+05,1.9733e+05,2
1.9739e+05,1.9767e+05,2
1.9768e+05,1.9796e+05,2
1.9798e+05,1.9825e+05,2
1.9826e+05,1.9854e+05,2
1.9854e+05,1.9882e+05,2
1.9882e+05,1.991e+05,2
1.9911e+05,1.9939e+05,2
1.9939e+05,1.9967e+05,2
1.9967e+05,1.9995e+05,2
1.9996e+05,2.0024e+05,2
2.0024e+05,2.0052e+05,2
2.0052e+05,2.008e+05,2
2.008e+05,2.0108e+05,1
2.0096e+05,2.0123e+05,2
2.0129e+05,2.0157e+05,2
2.0158e+05,2.0186e+05,2
2.0186e+05,2.0214e+05,2
2.0214e+05,2.0242e+05,1
2.0229e+05,2.0257e+05,2
2.0263e+05,2.0291e+05,2
2.0292e+05,2.032e+05,2
2.0321e+05,2.0349e+05,2
2.0349e+05,2.0377e+05,2
2.0377e+05,2.0405e+05,2
2.0405e+05,2.0433e+05,2
2.0433e+05,2.0461e+05,2
2.0461e+05,2.0489e+05,2
2.0491e+05,2.0518e+05,2
2.0519e+05,2.0547e+05,2
2.0548e+05,2.0576e+05,2
2.0577e+05,2.0605e+05,2
2.0606e+05,2.0634e+05,2
2.0635e+05,2.0663e+05,2
2.0664e+05,2.0692e+05,2
2.0693e+05,2.0721e+05,2
2.0722e+05,2.075e+05,1
2.0736e+05,2.0764e+05,2
2.0771e+05,2.0799e+05,2
2.08e+05,2.0828e+05,2
2.0829e+05,2.0857e+05,1
2.0843e+05,2.087e+05,2
2.0877e+05,2.0905e+05,2
2.0907e+05,2.0935e+05,2
2.0935e+05,2.0963e+05,2
2.0964e+05,2.0992e+05,2
2.0994e+05,2.1021e+05,2
2.1023e+05,2.105e+05,2
2.1052e+05,2.108e+05,1
2.1066e+05,2.1093e+05,2
2.1101e+05,2.1129e+05,2
2.1131e+05,2.1159e+05,1
2.1146e+05,2.1174e+05,2
2.1182e+05,2.121e+05,2
2.1212e+05,2.124e+05,2
2.1241e+05,2.1269e+05,2
2.127e+05,2.1298e+05,1
2.1284e+05,2.1312e+05,2
2.1319e+05,2.1347e+05,2
2.1348e+05,2.1376e+05,2
2.1377e+05,2.1404e+05,2
2.1405e+05,2.1433e+05,1
2.142e+05,2.1448e+05,2
2.1455e+05,2.1483e+05,2
2.1485e+05,2.1512e+05,2
2.1514e+05,2.1542e+05,2
2.1543e+05,2.1571e+05,2
2.1572e+05,2.16e+05,1
2.1586e+05,2.1614e+05,2
2.1623e+05,2.1651e+05,2
2.1653e+05,2.1681e+05,2
2.1682e+05,2.1709e+05,2
2.171e+05,2.1738e+05,2
2.1738e+05,2.1766e+05,2
2.1766e+05,2.1794e+05,2
2.1795e+05,2.1823e+05,2
2.1823e+05,2.1851e+05,2
2.1852e+05,2.1879e+05,2
2.188e+05,2.1908e+05,2
2.1908e+05,2.1936e+05,2
2.1937e+05,2.1965e+05,2
2.1966e+05,2.1994e+05,2
2.1995e+05,2.2022e+05,2
2.2024e+05,2.2052e+05,2
2.2054e+05,2.2082e+05,2
2.2083e+05,2.2111e+05,2
2.2112e+05,2.214e+05,2
2.2141e+05,2.2169e+05,2
2.217e+05,2.2198e+05,2
2.2199e+05,2.2227e+05,2
2.2228e+05,2.2256e+05,2
2.2257e+05,2.2284e+05,2
2.2285e+05,2.2313e+05,2
2.2314e+05,2.2341e+05,2
2.2342e+05,2.237e+05,2
2.2371e+05,2.2399e+05,2
2.24e+05,2.2428e+05,2
2.2429e+05,2.2456e+05,2
2.2457e+05,2.2485e+05,2
2.2486e+05,2.2514e+05,2
2.2514e+05,2.2542e+05,2
2.2543e+05,2.2571e+05,2
2.2572e+05,2.26e+05,2
2.26e+05,2.2628e+05,2
2.2629e+05,2.2657e+05,2
2.2657e+05,2.2685e+05,2
2.2686e+05,2.2713e+05,2
2.2714e+05,2.2742e+05,2
2.2742e+05,2.277e+05,2
2.277e+05,2.2798e+05,2
2.2798e+05,2.2826e+05,2
2.2827e+05,2.2855e+05,2
2.2855e+05,2.2883e+05,2
2.2885e+05,2.2912e+05,2
2.2913e+05,2.2941e+05,2
2.2942e+05,2.297e+05,2
2.2972e+05,2.3e+05,2
2.3001e+05,2.3029e+05,2
2.303e+05,2.3058e+05,2
2.3059e+05,2.3087e+05,2
2.3089e+05,2.3117e+05,2
2.3118e+05,2.3146e+05,2
2.3146e+05,2.3174e+05,2
2.3175e+05,2.3203e+05,2
2.3205e+05,2.3232e+05,2
2.3234e+05,2.3262e+05,2
2.3263e+05,2.329e+05,2
2.3292e+05,2.332e+05,2
2.3321e+05,2.3349e+05,2
2.335e+05,2.3378e+05,2
2.3379e+05,2.3407e+05,2
2.3407e+05,2.3435e+05,2
2.3436e+05,2.3464e+05,2
2.3465e+05,2.3493e+05,2
2.3493e+05,2.3521e+05,2
2.3521e+05,2.3549e+05,2
2.3549e+05,2.3577e+05,2
2.3578e+05,2.3606e+05,2
2.3606e+05,2.3634e+05,2
2.3635e+05,2.3663e+05,2
2.3664e+05,2.3691e+05,2
2.3692e+05,2.372e+05,2
2.3721e+05,2.3749e+05,2
2.3749e+05,2.3777e+05,2
2.3777e+05,2.3805e+05,2
2.3806e+05,2.3833e+05,2
2.3834e+05,2.3862e+05,2
2.3862e+05,2.389e+05,2
2.3891e+05,2.3919e+05,2
2.392e+05,2.3947e+05,2
2.3948e+05,2.3976e+05,2
2.3977e+05,2.4005e+05,2
2.4005e+05,2.4033e+05,2
2.4034e+05,2.4062e+05,2
2.4063e+05,2.4091e+05,2
2.4091e+05,2.4119e+05,2
2.4119e+05,2.4147e+05,2
2.4148e+05,2.4175e+05,2
2.4176e+05,2.4204e+05,2
2.4204e+05,2.4232e+05,2
2.4232e+05,2.426e+05,2
2.4261e+05,2.4288e+05,2
2.4289e+05,2.4317e+05,2
2.4317e+05,2.4344e+05,2
2.4345e+05,2.4373e+05,2
2.4374e+05,2.4401e+05,2
2.4402e+05,2.443e+05,2
2.4431e+05,2.4459e+05,2
2.4461e+05,2.4489e+05,2
2.449e+05,2.4518e+05,2
2.4518e+05,2.4546e+05,2
2.4547e+05,2.4575e+05,2
2.4576e+05,2.4604e+05,2
2.4605e+05,2.4633e+05,2
2.4634e+05,2.4662e+05,2
2.4663e+05,2.4691e+05,2
2.4692e+05,2.472e+05,2
2.472e+05,2.4748e+05,2
2.4749e+05,2.4777e+05,2
2.4777e+05,2.4805e+05,2
2.4806e+05,2.4834e+05,2
2.4834e+05,2.4862e+05,2
2.4862e+05,2.489e+05,2
2.4891e+05,2.4918e+05,2
2.4919e+05,2.4947e+05,2
2.4947e+05,2.4975e+05,2
2.4976e+05,2.5004e+05,2
2.5004e+05,2.5032e+05,2
2.5033e+05,2.5061e+05,2
2.5061e+05,2.5089e+05,2
2.5089e+05,2.5117e+05,2
2.5118e+05,2.5146e+05,2
2.5146e+05,2.5174e+05,2
2.5174e+05,2.5202e+05,2
2.5202e+05,2.523e+05,2
2.5231e+05,2.5259e+05,2
2.5259e+05,2.5287e+05,2
2.5287e+05,2.5315e+05,2
2.5315e+05,2.5343e+05,2
2.5344e+05,2.5372e+05,2
2.5372e+05,2.54e+05,2
2.5401e+05,2.5428e+05,2
2.5429e+05,2.5457e+05,2
2.5457e+05,2.5485e+05,2
2.5485e+05,2.5513e+05,2
2.5513e+05,2.5541e+05,2
2.5541e+05,2.5569e+05,2
2.5569e+05,2.5597e+05,2
2.5598e+05,2.5626e+05,2
2.5626e+05,2.5654e+05,2
2.5655e+05,2.5683e+05,2
2.5684e+05,2.5712e+05,2
2.5713e+05,2.5741e+05,2
2.5742e+05,2.577e+05,2
2.5771e+05,2.5799e+05,2
2.58e+05,2.5828e+05,2
2.5829e+05,2.5857e+05,2
2.5858e+05,2.5885e+05,2
2.5886e+05,2.5914e+05,2
2.5915e+05,2.5943e+05,2
2.5944e+05,2.5972e+05,2
2.5972e+05,2.6e+05,2
2.6001e+05,2.6029e+05,2
2.603e+05,2.6057e+05,2
2.6058e+05,2.6086e+05,2
2.6087e+05,2.6115e+05,2
2.6116e+05,2.6143e+05,2
2.6144e+05,2.6172e+05,2
2.6173e+05,2.6201e+05,2
2.6202e+05,2.623e+05,2
2.623e+05,2.6258e+05,2
2.6258e+05,2.6286e+05,2
2.6287e+05,2.6315e+05,2
2.6316e+05,2.6344e+05,2
2.6344e+05,2.6372e+05,2
2.6373e+05,2.6401e+05,2
2.6402e+05,2.643e+05,2
2.6431e+05,2.6458e+05,2
2.6459e+05,2.6487e+05,2
2.6487e+05,2.6515e+05,2
2.6515e+05,2.6543e+05,2
2.6543e+05,2.6571e+05,2
2.6569e+05,2.6597e+05,2
2.6595e+05,2.6623e+05,2
2.6622e+05,2.665e+05,2
2.6649e+05,2.6676e+05,2
2.6675e+05,2.6703e+05,2
2.67e+05,2.6728e+05,2
2.6727e+05,2.6755e+05,2
2.6754e+05,2.6782e+05,2
2.6782e+05,2.681e+05,2
2.681e+05,2.6838e+05,2
2.6839e+05,2.6867e+05,2
2.6867e+05,2.6895e+05,2
2.6895e+05,2.6923e+05,2
2.6924e+05,2.6952e+05,2
2.6952e+05,2.698e+05,2
2.698e+05,2.7008e+05,2
2.7008e+05,2.7036e+05,2
2.7037e+05,2.7065e+05,2
2.7065e+05,2.7093e+05,2
2.7093e+05,2.7121e+05,2
2.7122e+05,2.7149e+05,2
2.715e+05,2.7178e+05,2
2.7178e+05,2.7206e+05,2
2.7207e+05,2.7235e+05,2
2.7236e+05,2.7264e+05,2
2.7265e+05,2.7292e+05,2
2.7293e+05,2.7321e+05,2
2.7322e+05,2.735e+05,2
2.7351e+05,2.7379e+05,2
2.738e+05,2.7408e+05,2
2.7409e+05,2.7437e+05,2
2.7439e+05,2.7467e+05,2
2.7468e+05,2.7496e+05,2
2.7497e+05,2.7525e+05,2
2.7527e+05,2.7554e+05,2
2.7556e+05,2.7584e+05,2
2.7585e+05,2.7613e+05,2
2.7614e+05,2.7642e+05,2
2.7644e+05,2.7672e+05,2
2.7673e+05,2.7701e+05,2
2.7703e+05,2.7731e+05,2
2.7732e+05,2.776e+05,2
2.7761e+05,2.7789e+05,2
2.7789e+05,2.7817e+05,2
2.7818e+05,2.7846e+05,2
2.7847e+05,2.7874e+05,2
2.7875e+05,2.7903e+05,2
2.7905e+05,2.7933e+05,2
2.7934e+05,2.7961e+05,2
2.7962e+05,2.799e+05,2
2.7991e+05,2.8019e+05,2
2.802e+05,2.8048e+05,2
2.8048e+05,2.8076e+05,2
2.8077e+05,2.8105e+05,2
2.8105e+05,2.8133e+05,2
2.8134e+05,2.8162e+05,2
2.8162e+05,2.819e+05,2
2.819e+05,2.8218e+05,2
2.8219e+05,2.8247e+05,2
2.8247e+05,2.8275e+05,2
2.8276e+05,2.8304e+05,2
2.8304e+05,2.8332e+05,2
2.8333e+05,2.8361e+05,2
2.8362e+05,2.839e+05,2
2.8391e+05,2.8419e+05,2
2.842e+05,2.8448e+05,2
2.8449e+05,2.8476e+05,2
2.8477e+05,2.8505e+05,2
2.8506e+05,2.8534e+05,2
2.8534e+05,2.8562e+05,2
2.8563e+05,2.8591e+05,2
2.8591e+05,2.8619e+05,2
2.8619e+05,2.8647e+05,2
2.8647e+05,2.8675e+05,2
2.8675e+05,2.8703e+05,2
2.8703e+05,2.8731e+05,2
2.873e+05,2.8758e+05,2
2.8758e+05,2.8786e+05,2
2.8786e+05,2.8814e+05,2
2.8813e+05,2.8841e+05,2
2.8841e+05,2.8869e+05,2
2.8868e+05,2.8896e+05,2
2.8896e+05,2.8924e+05,2
2.8924e+05,2.8952e+05,2
2.8952e+05,2.8979e+05,2
2.8979e+05,2.9007e+05,2
2.9007e+05,2.9035e+05,2
2.9035e+05,2.9063e+05,2
2.9063e+05,2.9091e+05,2
2.9091e+05,2.9119e+05,2
2.9119e+05,2.9147e+05,2
2.9147e+05,2.9175e+05,2
2.9175e+05,2.9203e+05,2
2.9203e+05,2.9231e+05,2
2.9231e+05,2.9259e+05,2
2.9258e+05,2.9286e+05,2
2.9285e+05,2.9313e+05,2
2.9312e+05,2.934e+05,2
2.9339e+05,2.9367e+05,2
2.9364e+05,2.9392e+05,2
2.939e+05,2.9418e+05,2
2.9417e+05,2.9444e+05,2
2.9443e+05,2.9471e+05,2
2.947e+05,2.9498e+05,2
2.9497e+05,2.9525e+05,2
2.9525e+05,2.9553e+05,2
2.9553e+05,2.9581e+05,2
2.9581e+05,2.9609e+05,2
2.961e+05,2.9638e+05,2
2.9639e+05,2.9667e+05,2
2.9668e+05,2.9696e+05,2
2.9696e+05,2.9724e+05,2
2.9725e+05,2.9752e+05,2
2.9753e+05,2.9781e+05,2
2.9783e+05,2.981e+05,2
2.9812e+05,2.984e+05,2
2.9841e+05,2.9869e+05,2
2.9871e+05,2.9898e+05,2
2.9899e+05,2.9927e+05,2
2.9928e+05,2.9956e+05,2
2.9957e+05,2.9985e+05,2
2.9986e+05,3.0014e+05,2
3.0015e+05,3.0043e+05,2
3.0045e+05,3.0072e+05,2
3.0073e+05,3.0101e+05,2
3.0102e+05,3.013e+05,2
3.0131e+05,3.0159e+05,2
3.016e+05,3.0188e+05,2
3.0189e+05,3.0217e+05,2
3.0218e+05,3.0246e+05,2
3.0247e+05,3.0275e+05,2
3.0277e+05,3.0304e+05,2
3.0306e+05,3.0334e+05,2
3.0335e+05,3.0363e+05,2
3.0364e+05,3.0392e+05,2
3.0393e+05,3.0421e+05,2
3.0421e+05,3.0449e+05,2
3.0449e+05,3.0477e+05,2
3.0477e+05,3.0505e+05,2
3.0506e+05,3.0534e+05,2
3.0534e+05,3.0562e+05,2
3.0563e+05,3.0591e+05,2
3.0591e+05,3.0619e+05,2
3.062e+05,3.0648e+05,2
3.0649e+05,3.0677e+05,2
3.0677e+05,3.0705e+05,2
3.0706e+05,3.0734e+05,2
3.0734e+05,3.0762e+05,2
3.0763e+05,3.079e+05,2
3.0791e+05,3.0819e+05,2
3.0819e+05,3.0847e+05,2
3.0847e+05,3.0875e+05,2
3.0875e+05,3.0903e+05,2
3.0903e+05,3.0931e+05,2
3.0931e+05,3.0959e+05,2
3.0959e+05,3.0987e+05,2
3.0987e+05,3.1015e+05,2
3.1016e+05,3.1044e+05,2
3.1044e+05,3.1072e+05,2
3.1072e+05,3.11e+05,2
3.1101e+05,3.1129e+05,2
3.1129e+05,3.1157e+05,2
3.1158e+05,3.1185e+05,2
3.1186e+05,3.1214e+05,2
3.1214e+05,3.1242e+05,2
3.1242e+05,3.127e+05,2
3.127e+05,3.1298e+05,2
3.1298e+05,3.1326e+05,2
3.1326e+05,3.1354e+05,2
3.1353e+05,3.1381e+05,2
3.1382e+05,3.141e+05,2
3.141e+05,3.1438e+05,2
3.1438e+05,3.1466e+05,2
3.1466e+05,3.1494e+05,2
3.1495e+05,3.1523e+05,2
3.1523e+05,3.155e+05,2
3.1551e+05,3.1578e+05,2
3.1579e+05,3.1606e+05,2
3.1606e+05,3.1634e+05,2
3.1634e+05,3.1662e+05,2
3.1662e+05,3.169e+05,2
3.169e+05,3.1718e+05,2
3.1718e+05,3.1746e+05,2
3.1745e+05,3.1773e+05,2
3.1773e+05,3.1801e+05,2
3.18e+05,3.1828e+05,2
3.1827e+05,3.1855e+05,2
3.1854e+05,3.1882e+05,2
3.1881e+05,3.1909e+05,2
3.1908e+05,3.1936e+05,2
3.1936e+05,3.1963e+05,2
3.1962e+05,3.199e+05,2
3.199e+05,3.2018e+05,2
3.2017e+05,3.2045e+05,2
3.2044e+05,3.2072e+05,2
3.2071e+05,3.2099e+05,2
3.2098e+05,3.2126e+05,2
3.2126e+05,3.2153e+05,2
3.2153e+05,3.2181e+05,2
3.2181e+05,3.2209e+05,2
3.2209e+05,3.2237e+05,2
3.2237e+05,3.2265e+05,2
3.2265e+05,3.2293e+05,2
3.2293e+05,3.2321e+05,2
3.2322e+05,3.235e+05,2
3.235e+05,3.2377e+05,2
3.2378e+05,3.2406e+05,2
3.2406e+05,3.2434e+05,2
3.2434e+05,3.2462e+05,2
3.2462e+05,3.249e+05,2
3.249e+05,3.2518e+05,2
3.2518e+05,3.2546e+05,2
3.2546e+05,3.2574e+05,2
3.2574e+05,3.2602e+05,2
3.2603e+05,3.2631e+05,2
3.2631e+05,3.2659e+05,2
3.2659e+05,3.2687e+05,2
3.2687e+05,3.2715e+05,2
3.2715e+05,3.2743e+05,2
3.2743e+05,3.2771e+05,2
3.2771e+05,3.2799e+05,2
3.28e+05,3.2827e+05,2
3.2828e+05,3.2855e+05,2
3.2856e+05,3.2883e+05,2
3.2884e+05,3.2912e+05,2
3.2912e+05,3.294e+05,2
3.2941e+05,3.2968e+05,2
3.2969e+05,3.2997e+05,2
3.2998e+05,3.3026e+05,2
3.3026e+05,3.3054e+05,2
3.3055e+05,3.3083e+05,2
3.3083e+05,3.3111e+05,2
3.3112e+05,3.3139e+05,2
3.3139e+05,3.3167e+05,2
3.3168e+05,3.3196e+05,2
3.3196e+05,3.3224e+05,2
3.3223e+05,3.3251e+05,2
3.3251e+05,3.3279e+05,2
3.3279e+05,3.3307e+05,2
3.3307e+05,3.3335e+05,2
3.3334e+05,3.3362e+05,2
3.3362e+05,3.339e+05,2
3.3389e+05,3.3417e+05,2
3.3417e+05,3.3445e+05,2
3.3444e+05,3.3472e+05,2
3.3472e+05,3.35e+05,2
3.3499e+05,3.3527e+05,2
3.3526e+05,3.3554e+05,2
3.3553e+05,3.3581e+05,2
3.358e+05,3.3608e+05,2
3.3607e+05,3.3635e+05,2
3.3635e+05,3.3662e+05,2
3.3662e+05,3.369e+05,2
3.369e+05,3.3718e+05,2
3.3718e+05,3.3746e+05,2
3.3746e+05,3.3774e+05,2
3.3774e+05,3.3802e+05,2
3.3801e+05,3.3829e+05,2
3.3829e+05,3.3857e+05,2
3.3857e+05,3.3884e+05,2
3.3884e+05,3.3912e+05,2
3.3912e+05,3.394e+05,2
3.3941e+05,3.3969e+05,2
3.397e+05,3.3998e+05,2
3.3998e+05,3.4026e+05,2
3.4027e+05,3.4054e+05,2
3.4055e+05,3.4083e+05,2
3.4082e+05,3.411e+05,2
3.411e+05,3.4138e+05,2
3.4137e+05,3.4165e+05,2
3.4165e+05,3.4193e+05,2
3.4193e+05,3.4221e+05,2
3.4221e+05,3.4249e+05,2
3.425e+05,3.4278e+05,2
3.4279e+05,3.4307e+05,2
3.4307e+05,3.4335e+05,2
3.4336e+05,3.4364e+05,2
3.4364e+05,3.4392e+05,2
3.4392e+05,3.442e+05,2
3.4419e+05,3.4447e+05,2
3.4447e+05,3.4475e+05,2
3.4475e+05,3.4503e+05,2
3.4503e+05,3.4531e+05,2
3.4531e+05,3.4559e+05,2
3.4559e+05,3.4587e+05,2
3.4587e+05,3.4615e+05,2
3.4615e+05,3.4643e+05,2
3.4642e+05,3.467e+05,2
3.467e+05,3.4698e+05,2
3.4698e+05,3.4726e+05,2
3.4726e+05,3.4754e+05,2
3.4753e+05,3.4781e+05,2
3.4781e+05,3.4809e+05,2
3.4809e+05,3.4837e+05,2
3.4837e+05,3.4865e+05,2
3.4865e+05,3.4893e+05,2
3.4893e+05,3.4921e+05,2
3.4921e+05,3.4949e+05,2
3.495e+05,3.4978e+05,2
3.4978e+05,3.5005e+05,2
3.5006e+05,3.5034e+05,2
3.5034e+05,3.5062e+05,2
3.5061e+05,3.5089e+05,2
3.5089e+05,3.5117e+05,2
3.5118e+05,3.5146e+05,2
3.5147e+05,3.5175e+05,2
3.5175e+05,3.5203e+05,2
3.5204e+05,3.5231e+05,2
3.5232e+05,3.526e+05,2
3.526e+05,3.5288e+05,2
3.5288e+05,3.5316e+05,2
3.5316e+05,3.5344e+05,2
3.5344e+05,3.5372e+05,2
3.5372e+05,3.54e+05,2
3.5401e+05,3.5429e+05,2
3.5429e+05,3.5457e+05,2
3.5458e+05,3.5486e+05,2
3.5486e+05,3.5514e+05,2
3.5515e+05,3.5543e+05,2
3.5543e+05,3.5571e+05,2
3.557e+05,3.5598e+05,2
3.5597e+05,3.5625e+05,2
3.5625e+05,3.5653e+05,2
3.5653e+05,3.568e+05,2
3.568e+05,3.5708e+05,2
3.5708e+05,3.5736e+05,2
3.5736e+05,3.5764e+05,2
3.5764e+05,3.5792e+05,2
3.5792e+05,3.582e+05,2
3.582e+05,3.5848e+05,2
3.5848e+05,3.5876e+05,2
3.5876e+05,3.5904e+05,2
3.5904e+05,3.5932e+05,2
3.5931e+05,3.5959e+05,2
3.5959e+05,3.5987e+05,2
3.5987e+05,3.6015e+05,2
3.6016e+05,3.6044e+05,2
3.6044e+05,3.6072e+05,2
3.6072e+05,3.61e+05,2
3.61e+05,3.6128e+05,2
3.6128e+05,3.6156e+05,2
3.6156e+05,3.6184e+05,2
3.6184e+05,3.6212e+05,2
3.6211e+05,3.6239e+05,2
3.6239e+05,3.6267e+05,2
3.6267e+05,3.6295e+05,2
3.6295e+05,3.6323e+05,2
3.6323e+05,3.6351e+05,2
3.6351e+05,3.6379e+05,2
3.6379e+05,3.6407e+05,2
3.6407e+05,3.6435e+05,2
3.6435e+05,3.6463e+05,2
3.6464e+05,3.6492e+05,2
3.6493e+05,3.6521e+05,2
3.6522e+05,3.655e+05,2
3.655e+05,3.6578e+05,2
3.6578e+05,3.6606e+05,2
3.6606e+05,3.6634e+05,2
3.6634e+05,3.6662e+05,2
3.6663e+05,3.6691e+05,2
3.6691e+05,3.6719e+05,2
3.672e+05,3.6748e+05,2
3.6748e+05,3.6776e+05,2
3.6777e+05,3.6805e+05,2
3.6805e+05,3.6833e+05,2
3.6833e+05,3.6861e+05,2
3.6861e+05,3.6889e+05,2
3.6889e+05,3.6917e+05,2
3.6917e+05,3.6945e+05,2
3.6945e+05,3.6973e+05,2
3.6973e+05,3.7001e+05,2
3.7001e+05,3.7029e+05,2
3.7029e+05,3.7057e+05,2
3.7057e+05,3.7085e+05,2
3.7086e+05,3.7113e+05,2
3.7114e+05,3.7141e+05,2
3.7142e+05,3.717e+05,2
3.7171e+05,3.7198e+05,2
3.7199e+05,3.7227e+05,2
3.7227e+05,3.7255e+05,2
3.7256e+05,3.7283e+05,2
3.7284e+05,3.7312e+05,2
3.7311e+05,3.7339e+05,2
3.7339e+05,3.7367e+05,2
3.7367e+05,3.7395e+05,2
3.7395e+05,3.7423e+05,2
3.7423e+05,3.7451e+05,2
3.745e+05,3.7478e+05,2
3.7478e+05,3.7506e+05,2
3.7505e+05,3.7533e+05,2
3.7532e+05,3.756e+05,2
3.7559e+05,3.7587e+05,2
3.7587e+05,3.7615e+05,2
3.7615e+05,3.7643e+05,2
3.7643e+05,3.7671e+05,2
3.7671e+05,3.7699e+05,2
3.7698e+05,3.7726e+05,2
3.7726e+05,3.7754e+05,2
3.7754e+05,3.7782e+05,2
3.7782e+05,3.781e+05,2
3.7809e+05,3.7837e+05,2
3.7837e+05,3.7865e+05,2
3.7865e+05,3.7893e+05,2
3.7892e+05,3.792e+05,2
3.792e+05,3.7948e+05,2
3.7948e+05,3.7976e+05,2
3.7976e+05,3.8004e+05,2
3.8004e+05,3.8032e+05,2
3.8032e+05,3.8059e+05,2
3.8059e+05,3.8087e+05,2
3.8086e+05,3.8114e+05,2
3.8114e+05,3.8142e+05,2
3.8142e+05,3.817e+05,2
3.8169e+05,3.8197e+05,2
3.8196e+05,3.8224e+05,2
3.8223e+05,3.8251e+05,2
3.825e+05,3.8278e+05,2
3.8276e+05,3.8304e+05,2
3.8303e+05,3.8331e+05,2
3.833e+05,3.8358e+05,2
3.8356e+05,3.8384e+05,2
3.8383e+05,3.8411e+05,2
3.8409e+05,3.8437e+05,2
3.8436e+05,3.8464e+05,2
3.8463e+05,3.8491e+05,2
3.849e+05,3.8518e+05,2
3.8518e+05,3.8546e+05,2
3.8544e+05,3.8572e+05,2
3.8571e+05,3.8599e+05,2
3.8598e+05,3.8626e+05,2
3.8626e+05,3.8654e+05,2
3.8653e+05,3.8681e+05,2
3.868e+05,3.8708e+05,2
3.8708e+05,3.8736e+05,2
3.8735e+05,3.8763e+05,2
3.8762e+05,3.879e+05,2
3.879e+05,3.8818e+05,2
3.8818e+05,3.8846e+05,2
3.8846e+05,3.8874e+05,2
3.8874e+05,3.8902e+05,2
3.8903e+05,3.8931e+05,2
3.8931e+05,3.8959e+05,2
3.8959e+05,3.8987e+05,2
3.8988e+05,3.9015e+05,2
3.9016e+05,3.9044e+05,2
3.9043e+05,3.9071e+05,2
3.9071e+05,3.9099e+05,2
3.91e+05,3.9127e+05,2
3.9127e+05,3.9155e+05,2
3.9154e+05,3.9182e+05,2
3.9182e+05,3.9209e+05,2
3.9209e+05,3.9237e+05,2
3.9235e+05,3.9263e+05,2
3.9262e+05,3.929e+05,2
3.929e+05,3.9318e+05,2
3.9318e+05,3.9346e+05,2
3.9345e+05,3.9373e+05,2
3.9373e+05,3.9401e+05,2
3.9401e+05,3.9429e+05,2
3.9429e+05,3.9457e+05,2
3.9456e+05,3.9484e+05,2
3.9484e+05,3.9512e+05,2
3.9511e+05,3.9539e+05,2
3.9538e+05,3.9566e+05,2
3.9566e+05,3.9594e+05,2
3.9594e+05,3.9622e+05,2
3.9622e+05,3.965e+05,2
3.965e+05,3.9678e+05,2
3.9678e+05,3.9706e+05,2
3.9706e+05,3.9734e+05,2
3.9735e+05,3.9763e+05,2
3.9763e+05,3.9791e+05,2
3.9791e+05,3.9819e+05,2
3.982e+05,3.9848e+05,2
3.9848e+05,3.9876e+05,2
3.9876e+05,3.9904e+05,2
3.9905e+05,3.9932e+05,2
3.9933e+05,3.9961e+05,2
3.9961e+05,3.9989e+05,2
3.9989e+05,4.0017e+05,2
4.0017e+05,4.0045e+05,2
4.0045e+05,4.0073e+05,2
4.0073e+05,4.0101e+05,2
4.0101e+05,4.0129e+05,2
4.0127e+05,4.0155e+05,2
4.0153e+05,4.0181e+05,2
4.0181e+05,4.0209e+05,2
4.0208e+05,4.0236e+05,2
4.0236e+05,4.0264e+05,2
4.0263e+05,4.0291e+05,2
4.0291e+05,4.0318e+05,2
4.0318e+05,4.0346e+05,2
4.0345e+05,4.0373e+05,2
4.0373e+05,4.0401e+05,2
4.04e+05,4.0428e+05,2
4.0426e+05,4.0454e+05,2
4.0453e+05,4.048e+05,2
4.048e+05,4.0508e+05,2
4.0507e+05,4.0535e+05,2
4.0535e+05,4.0563e+05,2
4.0562e+05,4.059e+05,2
4.059e+05,4.0618e+05,2
4.0618e+05,4.0646e+05,2
4.0646e+05,4.0674e+05,2
4.0674e+05,4.0702e+05,2
4.0702e+05,4.073e+05,2
4.073e+05,4.0758e+05,2
4.0758e+05,4.0786e+05,2
4.0787e+05,4.0815e+05,2
4.0815e+05,4.0843e+05,2
4.0843e+05,4.0871e+05,1
4.0857e+05,4.0885e+05,2
4.0894e+05,4.0922e+05,2
4.0924e+05,4.0952e+05,2
4.0953e+05,4.0981e+05,1
4.0967e+05,4.0995e+05,2
4.1001e+05,4.1028e+05,2
4.1029e+05,4.1057e+05,1
4.1045e+05,4.1072e+05,2
4.1079e+05,4.1107e+05,2
4.1108e+05,4.1136e+05,2
4.1137e+05,4.1165e+05,1
4.1153e+05,4.1181e+05,2
4.1188e+05,4.1216e+05,2
4.1217e+05,4.1245e+05,2
4.1246e+05,4.1274e+05,1
4.1261e+05,4.1289e+05,2
4.1296e+05,4.1324e+05,2
4.1325e+05,4.1353e+05,2
4.1354e+05,4.1381e+05,1
4.1367e+05,4.1395e+05,2
4.1402e+05,4.143e+05,2
4.1431e+05,4.1458e+05,2
4.1459e+05,4.1487e+05,1
4.1472e+05,4.15e+05,2
4.1506e+05,4.1534e+05,2
4.1535e+05,4.1563e+05,2
4.1564e+05,4.1592e+05,1
4.1579e+05,4.1607e+05,2
4.1614e+05,4.1642e+05,2
4.1644e+05,4.1672e+05,2
4.1673e+05,4.1701e+05,2
4.1703e+05,4.173e+05,1
4.1718e+05,4.1746e+05,2
4.1753e+05,4.1781e+05,2
4.1783e+05,4.1811e+05,2
4.1811e+05,4.1839e+05,1
4.1827e+05,4.1855e+05,2
4.1862e+05,4.189e+05,2
4.1892e+05,4.192e+05,2
4.1921e+05,4.1948e+05,2
4.1949e+05,4.1977e+05,1
4.1965e+05,4.1993e+05,2
4.1999e+05,4.2027e+05,2
4.2028e+05,4.2056e+05,2
4.2057e+05,4.2085e+05,1
4.2071e+05,4.2099e+05,2
4.2104e+05,4.2132e+05,2
4.2133e+05,4.2161e+05,2
4.2161e+05,4.2189e+05,1
4.2177e+05,4.2204e+05,2
4.2211e+05,4.2239e+05,2
4.2239e+05,4.2267e+05,2
4.2266e+05,4.2294e+05,2
4.2294e+05,4.2322e+05,1
4.231e+05,4.2338e+05,2
4.2344e+05,4.2371e+05,2
4.2372e+05,4.24e+05,2
4.24e+05,4.2428e+05,2
4.2428e+05,4.2456e+05,1
4.2444e+05,4.2472e+05,2
4.2479e+05,4.2507e+05,2
4.2509e+05,4.2537e+05,2
4.2538e+05,4.2566e+05,2
4.2567e+05,4.2595e+05,2
4.2596e+05,4.2624e+05,1
4.2609e+05,4.2637e+05,2
4.2644e+05,4.2672e+05,2
4.2673e+05,4.2701e+05,2
4.2702e+05,4.273e+05,2
4.273e+05,4.2758e+05,2
4.2759e+05,4.2787e+05,2
4.2787e+05,4.2815e+05,1
4.2803e+05,4.2831e+05,2
4.2838e+05,4.2866e+05,2
4.2868e+05,4.2896e+05,2
4.2898e+05,4.2926e+05,2
4.2927e+05,4.2955e+05,2
4.2956e+05,4.2984e+05,2
4.2985e+05,4.3013e+05,2
4.3014e+05,4.3042e+05,2
4.3043e+05,4.3071e+05,1
4.3059e+05,4.3087e+05,2
4.3095e+05,4.3122e+05,2
4.3125e+05,4.3153e+05,2
4.3154e+05,4.3182e+05,2
4.3182e+05,4.321e+05,2
4.3211e+05,4.3239e+05,2
4.324e+05,4.3268e+05,1
4.3256e+05,4.3284e+05,2
4.3291e+05,4.3319e+05,2
4.3321e+05,4.3349e+05,2
4.3351e+05,4.3378e+05,2
4.338e+05,4.3408e+05,2
4.3408e+05,4.3436e+05,2
4.3437e+05,4.3465e+05,2
4.3467e+05,4.3495e+05,2
4.3496e+05,4.3524e+05,1
4.3511e+05,4.3539e+05,2
4.3546e+05,4.3574e+05,2
4.3576e+05,4.3604e+05,2
4.3604e+05,4.3632e+05,2
4.3633e+05,4.3661e+05,2
4.3662e+05,4.369e+05,1
4.3677e+05,4.3705e+05,2
4.3712e+05,4.374e+05,2
4.3742e+05,4.377e+05,2
4.3772e+05,4.38e+05,2
4.3802e+05,4.383e+05,1
4.3817e+05,4.3845e+05,2
4.3853e+05,4.3881e+05,2
4.3883e+05,4.3911e+05,2
4.3913e+05,4.3941e+05,2
4.3942e+05,4.397e+05,1
4.3956e+05,4.3984e+05,2
4.3991e+05,4.4018e+05,2
4.402e+05,4.4047e+05,2
4.4048e+05,4.4076e+05,2
4.4077e+05,4.4105e+05,1
4.4091e+05,4.4119e+05,2
4.4124e+05,4.4152e+05,2
4.4154e+05,4.4182e+05,2
4.4182e+05,4.421e+05,2
4.421e+05,4.4238e+05,2
4.4239e+05,4.4267e+05,2
4.4268e+05,4.4296e+05,2
4.4297e+05,4.4324e+05,1
4.4311e+05,4.4339e+05,2
4.4346e+05,4.4374e+05,2
4.4375e+05,4.4403e+05,2
4.4404e+05,4.4432e+05,2
4.4433e+05,4.4461e+05,2
4.4461e+05,4.4489e+05,2
4.4489e+05,4.4517e+05,1
4.4503e+05,4.4531e+05,2
4.4537e+05,4.4565e+05,2
4.4565e+05,4.4593e+05,2
4.4593e+05,4.4621e+05,1
4.4607e+05,4.4635e+05,2
4.464e+05,4.4668e+05,2
4.4667e+05,4.4695e+05,2
4.4693e+05,4.4721e+05,1
4.4707e+05,4.4735e+05,2
4.474e+05,4.4768e+05,2
4.4767e+05,4.4795e+05,2
4.4795e+05,4.4822e+05,2
4.4822e+05,4.485e+05,1
4.4837e+05,4.4865e+05,2
4.4871e+05,4.4899e+05,2
4.4899e+05,4.4927e+05,2
4.4927e+05,4.4955e+05,2
4.4954e+05,4.4982e+05,1
4.4968e+05,4.4996e+05,2
4.5e+05,4.5028e+05,2
4.5027e+05,4.5055e+05,2
4.5053e+05,4.5081e+05,1
4.5067e+05,4.5095e+05,2
4.5099e+05,4.5126e+05,2
4.5126e+05,4.5154e+05,2
4.5153e+05,4.5181e+05,1
4.5168e+05,4.5196e+05,2
4.5202e+05,4.523e+05,2
4.5231e+05,4.5259e+05,2
4.5258e+05,4.5286e+05,2
4.5285e+05,4.5313e+05,1
4.5299e+05,4.5327e+05,2
4.533e+05,4.5358e+05,2
4.5356e+05,4.5384e+05,1
4.5371e+05,4.5399e+05,2
4.5403e+05,4.543e+05,2
4.5428e+05,4.5456e+05,2
4.5454e+05,4.5482e+05,2
4.5479e+05,4.5507e+05,2
4.5504e+05,4.5532e+05,2
4.5529e+05,4.5557e+05,2
4.5554e+05,4.5582e+05,2
4.5579e+05,4.5607e+05,2
4.5603e+05,4.5631e+05,2
4.5628e+05,4.5656e+05,2
4.5653e+05,4.5681e+05,2
4.5678e+05,4.5706e+05,2
4.5703e+05,4.5731e+05,2
4.5729e+05,4.5757e+05,2
4.5756e+05,4.5784e+05,2
4.5782e+05,4.581e+05,2
4.581e+05,4.5838e+05,2
4.5838e+05,4.5866e+05,2
4.5866e+05,4.5894e+05,2
4.5894e+05,4.5922e+05,2
4.5922e+05,4.595e+05,2
4.5951e+05,4.5979e+05,2
4.5979e+05,4.6007e+05,2
4.6008e+05,4.6036e+05,2
4.6036e+05,4.6064e+05,2
4.6064e+05,4.6092e+05,2
4.6093e+05,4.6121e+05,2
4.6121e+05,4.6149e+05,2
4.6149e+05,4.6177e+05,2
4.6176e+05,4.6204e+05,2
4.6203e+05,4.6231e+05,2
