120,319,0
342,541,0
503,702,2
824,1023,0
1141,1340,0
1330,1529,2
1704,1903,0
1964,2163,0
2256,2455,0
2420,2619,2
2725,2924,0
2964,3163,0
3425,3624,0
3698,3897,0
4028,4227,0
4389,4588,0
4738,4937,0
4992,5191,0
5255,5454,0
5437,5636,2
5748,5947,0
5999,6198,0
6251,6450,0
6412,6611,2
6779,6978,0
7115,7314,0
7412,7611,0
7589,7788,2
7971,8170,0
8201,8400,0
8446,8645,0
8716,8915,0
9146,9345,0
9414,9613,0
9685,9884,0
10003,10202,0
10274,10473,0
10541,10740,0
10716,10915,2
11025,11224,0
11283,11482,0
11579,11778,0
11752,11951,2
12047,12246,0
12290,12489,0
12642,12841,0
12926,13125,0
13105,13304,2
13396,13595,0
13637,13836,0
13898,14097,0
14144,14343,0
14442,14641,0
14702,14901,0
14867,15066,2
15234,15433,0
15466,15665,0
15734,15933,0
15985,16184,0
16438,16637,0
16826,17025,0
17097,17296,0
17328,17527,0
17582,17781,0
17810,18009,0
18105,18304,0
18364,18563,0
18658,18857,0
18971,19170,0
19166,19365,2
19538,19737,0
19768,19967,0
20047,20246,0
20194,20393,2
20552,20751,0
20811,21010,0
21142,21341,0
21389,21588,0
21656,21855,0
21879,22078,0
22136,22335,0
22299,22498,2
22630,22829,0
22892,23091,0
23227,23426,0
23665,23864,0
24004,24203,0
24260,24459,0
24501,24700,0
24779,24978,0
25097,25296,0
25281,25480,2
25600,25799,0
25848,26047,0
26081,26280,0
26242,26441,2
26520,26719,0
26768,26967,0
27045,27244,0
27211,27410,2
27591,27790,0
27857,28056,0
28085,28284,0
28313,28512,0
28467,28666,2
28958,29157,0
29223,29422,0
29530,29729,0
29848,30047,0
30021,30220,2
30327,30526,0
30560,30759,0
30778,30977,0
31023,31222,0
31447,31646,0
31693,31892,0
32060,32259,0
32335,32534,0
32513,32712,2
32891,33090,0
33160,33359,0
33331,33530,2
33648,33847,0
33911,34110,0
34177,34376,0
34419,34618,0
34577,34776,2
34868,35067,0
35127,35326,0
35570,35769,0
35829,36028,0
36100,36299,0
36291,36490,2
36668,36867,0
36900,37099,0
37142,37341,0
37303,37502,2
37749,37948,0
37999,38198,0
38322,38521,0
38591,38790,0
38841,39040,0
39144,39343,0
39459,39658,0
39618,39817,2
39916,40115,0
40163,40362,0
40406,40605,0
40583,40782,2
40918,41117,0
41242,41441,0
41466,41665,0
41680,41879,0
41851,42050,2
42233,42432,0
42553,42752,0
42727,42926,2
43027,43226,0
43263,43462,0
43489,43688,0
43706,43905,0
43942,44141,0
44236,44435,0
44409,44608,2
44740,44939,0
45012,45211,0
45195,45394,2
45517,45716,0
45763,45962,0
46052,46251,0
46215,46414,2
46534,46733,0
46805,47004,0
47046,47245,0
47296,47495,0
47460,47659,2
47766,47965,0
48032,48231,0
48204,48403,2
48468,48667,0
48747,48946,0
49055,49254,0
49235,49434,2
49525,49724,0
49747,49946,0
49967,50166,0
50128,50327,2
50466,50665,0
50956,51155,0
51277,51476,0
51445,51644,2
51742,51941,0
52033,52232,0
52202,52401,2
52498,52697,0
52770,52969,0
53012,53211,0
53358,53557,0
53629,53828,0
53881,54080,0
54153,54352,0
54519,54718,0
54766,54965,0
55003,55202,0
55177,55376,2
55521,55720,0
55768,55967,0
56043,56242,0
56256,56455,0
56548,56747,0
56793,56992,0
57250,57449,0
57510,57709,0
57741,57940,0
57919,58118,2
58242,58441,0
58471,58670,0
58709,58908,0
58869,59068,2
59161,59360,0
59395,59594,0
59675,59874,0
59937,60136,0
60356,60555,0
60591,60790,0
60838,61037,0
60996,61195,2
61311,61510,2
61623,61822,0
61796,61995,2
62251,62450,0
62537,62736,0
62701,62900,2
63025,63224,0
63263,63462,0
63492,63691,0
63741,63940,0
63912,64111,2
64200,64399,0
64438,64637,0
64668,64867,0
64825,65024,2
65142,65341,0
65368,65567,0
65620,65819,0
65790,65989,2
66187,66386,0
66642,66841,0
66944,67143,0
67107,67306,2
67412,67611,0
67660,67859,0
67936,68135,0
68112,68311,2
68404,68603,0
68883,69082,0
69214,69413,0
69457,69656,0
69902,70101,0
70224,70423,0
70459,70658,0
70793,70992,0
71091,71290,0
71258,71457,2
71596,71795,0
71912,72111,0
72192,72391,0
72477,72676,0
72657,72856,2
73008,73207,0
73243,73442,0
73494,73693,0
73663,73862,2
73990,74189,0
74510,74709,0
74793,74992,0
74963,75162,2
75258,75457,0
75499,75698,0
75724,75923,0
75948,76147,0
76203,76402,0
76461,76660,0
76659,76858,2
77017,77216,0
77296,77495,0
77576,77775,0
77749,77948,2
78008,78207,0
78221,78420,0
78460,78659,0
78634,78833,2
78956,79155,0
79205,79404,0
79574,79773,0
79841,80040,0
80016,80215,2
80333,80532,0
80553,80752,0
80782,80981,0
81096,81295,0
81270,81469,2
81616,81815,0
81946,82145,0
82109,82308,2
82430,82629,0
82665,82864,0
82886,83085,0
83141,83340,0
83312,83511,2
83643,83842,0
83865,84064,0
84164,84363,0
84462,84661,0
84617,84816,2
84952,85151,0
85198,85397,0
85451,85650,0
85630,85829,2
85934,86133,0
86180,86379,0
86409,86608,0
86571,86770,2
86864,87063,0
87119,87318,0
87469,87668,0
87649,87848,2
88008,88207,0
88237,88436,0
88496,88695,0
88658,88857,2
89069,89268,0
89242,89441,2
89568,89767,0
89823,90022,0
90240,90439,0
90487,90686,0
90718,90917,0
90968,91167,0
91190,91389,0
91401,91600,0
91625,91824,0
91865,92064,0
92149,92348,0
92411,92610,0
92578,92777,2
92875,93074,0
93093,93292,0
93314,93513,0
93491,93690,2
93883,94082,0
94135,94334,0
94379,94578,0
94546,94745,2
94874,95073,0
95103,95302,0
95355,95554,0
95622,95821,0
95858,96057,0
96089,96288,0
96264,96463,2
96614,96813,0
96846,97045,0
97118,97317,0
97405,97604,0
97567,97766,2
97897,98096,0
98130,98329,0
98345,98544,0
98584,98783,0
98771,98970,2
99067,99266,0
99271,99470,0
99560,99759,0
99808,1.0001e+05,0
1.0003e+05,1.0023e+05,0
1.002e+05,1.004e+05,2
1.005e+05,1.007e+05,0
1.0079e+05,1.0099e+05,0
1.0096e+05,1.0116e+05,2
1.0132e+05,1.0152e+05,0
1.0157e+05,1.0177e+05,0
1.018e+05,1.02e+05,0
1.0201e+05,1.0221e+05,0
1.0219e+05,1.0239e+05,2
1.0249e+05,1.0269e+05,0
1.0277e+05,1.0297e+05,0
1.0295e+05,1.0315e+05,2
1.0325e+05,1.0345e+05,0
1.0351e+05,1.0371e+05,0
1.0379e+05,1.0399e+05,0
1.0387e+05,1.0407e+05,-1
1.0395e+05,1.0415e+05,2
1.0427e+05,1.0447e+05,0
1.0455e+05,1.0475e+05,0
1.0472e+05,1.0492e+05,2
1.0508e+05,1.0528e+05,0
1.0541e+05,1.0561e+05,0
1.0558e+05,1.0578e+05,2
1.0579e+05,1.0599e+05,-1
1.06e+05,1.062e+05,0
1.0624e+05,1.0644e+05,0
1.0645e+05,1.0665e+05,0
1.0667e+05,1.0687e+05,0
1.0684e+05,1.0704e+05,2
1.0715e+05,1.0735e+05,0
1.0739e+05,1.0759e+05,0
1.0763e+05,1.0783e+05,0
1.0779e+05,1.0799e+05,2
1.0808e+05,1.0828e+05,0
1.0839e+05,1.0858e+05,0
1.0855e+05,1.0875e+05,2
1.0884e+05,1.0904e+05,0
1.0947e+05,1.0967e+05,0
1.0971e+05,1.0991e+05,0
1.0995e+05,1.1015e+05,0
1.1012e+05,1.1032e+05,2
1.1042e+05,1.1062e+05,0
1.1063e+05,1.1083e+05,0
1.1098e+05,1.1118e+05,0
1.1125e+05,1.1144e+05,0
1.1154e+05,1.1174e+05,0
1.1171e+05,1.1191e+05,2
1.1208e+05,1.1228e+05,0
1.1236e+05,1.1256e+05,0
1.1252e+05,1.1272e+05,2
1.1277e+05,1.1297e+05,0
1.1301e+05,1.1321e+05,0
1.1328e+05,1.1348e+05,0
1.1346e+05,1.1366e+05,2
1.1375e+05,1.1395e+05,0
1.1399e+05,1.1419e+05,0
1.1424e+05,1.1444e+05,0
1.1452e+05,1.1472e+05,0
1.1489e+05,1.1509e+05,0
1.1511e+05,1.1531e+05,0
1.1535e+05,1.1555e+05,0
1.1561e+05,1.158e+05,0
1.1583e+05,1.1603e+05,0
1.1606e+05,1.1626e+05,0
1.1624e+05,1.1644e+05,2
1.1651e+05,1.1671e+05,0
1.1673e+05,1.1693e+05,0
1.1704e+05,1.1724e+05,0
1.1754e+05,1.1774e+05,0
1.1785e+05,1.1804e+05,0
1.1802e+05,1.1822e+05,2
1.1837e+05,1.1857e+05,0
1.1861e+05,1.1881e+05,0
1.1884e+05,1.1903e+05,0
1.1914e+05,1.1934e+05,0
1.1937e+05,1.1957e+05,0
1.196e+05,1.198e+05,0
1.1977e+05,1.1997e+05,2
1.2012e+05,1.2032e+05,0
1.2037e+05,1.2057e+05,0
1.2067e+05,1.2087e+05,0
1.2099e+05,1.2119e+05,0
1.2114e+05,1.2134e+05,2
1.2145e+05,1.2164e+05,0
1.217e+05,1.219e+05,0
1.2195e+05,1.2215e+05,0
1.2219e+05,1.2239e+05,0
1.2247e+05,1.2267e+05,0
1.2287e+05,1.2307e+05,0
1.233e+05,1.235e+05,0
1.2353e+05,1.2373e+05,0
1.2378e+05,1.2398e+05,0
1.2425e+05,1.2444e+05,0
1.2449e+05,1.2469e+05,0
1.248e+05,1.25e+05,0
1.2522e+05,1.2542e+05,0
1.2553e+05,1.2573e+05,0
1.2581e+05,1.2601e+05,0
1.2598e+05,1.2618e+05,2
1.2633e+05,1.2653e+05,0
1.2656e+05,1.2676e+05,0
1.2678e+05,1.2698e+05,0
1.2702e+05,1.2722e+05,0
1.2719e+05,1.2739e+05,2
1.2752e+05,1.2772e+05,0
1.2794e+05,1.2814e+05,0
1.2822e+05,1.2842e+05,0
1.2839e+05,1.2859e+05,2
1.2877e+05,1.2896e+05,0
1.2899e+05,1.2919e+05,0
1.2921e+05,1.2941e+05,0
1.2947e+05,1.2967e+05,0
1.2971e+05,1.2991e+05,0
1.2998e+05,1.3017e+05,0
1.3021e+05,1.3041e+05,0
1.3045e+05,1.3065e+05,0
1.3063e+05,1.3083e+05,2
1.31e+05,1.312e+05,0
1.3127e+05,1.3147e+05,0
1.3145e+05,1.3165e+05,2
1.3177e+05,1.3197e+05,0
1.321e+05,1.323e+05,0
1.3232e+05,1.3251e+05,0
1.3254e+05,1.3274e+05,0
1.3279e+05,1.3299e+05,0
1.3296e+05,1.3316e+05,2
1.3326e+05,1.3346e+05,0
1.337e+05,1.339e+05,0
1.3393e+05,1.3413e+05,0
1.3414e+05,1.3434e+05,0
1.343e+05,1.345e+05,2
1.3457e+05,1.3477e+05,0
1.3503e+05,1.3523e+05,0
1.3531e+05,1.3551e+05,0
1.3558e+05,1.3578e+05,0
1.3576e+05,1.3595e+05,2
1.3609e+05,1.3629e+05,0
1.363e+05,1.365e+05,0
1.3652e+05,1.3672e+05,0
1.3668e+05,1.3688e+05,2
1.3698e+05,1.3718e+05,0
1.3722e+05,1.3742e+05,0
1.3747e+05,1.3767e+05,0
1.3764e+05,1.3784e+05,2
1.3797e+05,1.3817e+05,0
1.3825e+05,1.3845e+05,0
1.3841e+05,1.3861e+05,2
1.3871e+05,1.3891e+05,0
1.3894e+05,1.3913e+05,0
1.3926e+05,1.3946e+05,0
1.3949e+05,1.3968e+05,0
1.3972e+05,1.3992e+05,0
1.3994e+05,1.4014e+05,0
1.4026e+05,1.4046e+05,0
1.4049e+05,1.4069e+05,0
1.407e+05,1.409e+05,0
1.4088e+05,1.4107e+05,2
1.4118e+05,1.4138e+05,0
1.4152e+05,1.4172e+05,0
1.4183e+05,1.4203e+05,0
1.4201e+05,1.4221e+05,2
1.4238e+05,1.4258e+05,0
1.4261e+05,1.4281e+05,0
1.4284e+05,1.4304e+05,0
1.4306e+05,1.4326e+05,0
1.4323e+05,1.4343e+05,2
1.4352e+05,1.4372e+05,0
1.4379e+05,1.4399e+05,0
1.4403e+05,1.4423e+05,0
1.4425e+05,1.4445e+05,0
1.4434e+05,1.4454e+05,-1
1.4443e+05,1.4463e+05,2
1.4471e+05,1.4491e+05,0
1.4498e+05,1.4518e+05,0
1.4515e+05,1.4535e+05,2
1.4547e+05,1.4567e+05,0
1.4575e+05,1.4595e+05,0
1.4593e+05,1.4613e+05,2
1.4612e+05,1.4632e+05,-1
1.463e+05,1.465e+05,0
1.4653e+05,1.4673e+05,0
1.4677e+05,1.4697e+05,0
1.47e+05,1.472e+05,0
1.472e+05,1.474e+05,0
1.4748e+05,1.4768e+05,0
1.4765e+05,1.4785e+05,2
1.4799e+05,1.4819e+05,0
1.4822e+05,1.4842e+05,0
1.4845e+05,1.4865e+05,0
1.4869e+05,1.4889e+05,0
1.4892e+05,1.4912e+05,0
1.4916e+05,1.4936e+05,0
1.4933e+05,1.4953e+05,2
1.4964e+05,1.4984e+05,0
1.499e+05,1.501e+05,0
1.5009e+05,1.5029e+05,2
1.5042e+05,1.5062e+05,0
1.5071e+05,1.5091e+05,0
1.5101e+05,1.512e+05,0
1.5116e+05,1.5136e+05,2
1.515e+05,1.517e+05,0
1.5174e+05,1.5194e+05,0
1.5206e+05,1.5226e+05,0
1.5223e+05,1.5243e+05,2
1.5259e+05,1.5279e+05,0
1.5285e+05,1.5305e+05,0
1.5304e+05,1.5323e+05,2
1.533e+05,1.535e+05,0
1.5355e+05,1.5375e+05,0
1.5377e+05,1.5397e+05,0
1.54e+05,1.5419e+05,0
1.5417e+05,1.5437e+05,2
1.5449e+05,1.5469e+05,0
1.5472e+05,1.5492e+05,0
1.5501e+05,1.5521e+05,0
1.5527e+05,1.5546e+05,0
1.5548e+05,1.5568e+05,0
1.5573e+05,1.5593e+05,0
1.5604e+05,1.5624e+05,0
1.562e+05,1.564e+05,2
1.5657e+05,1.5677e+05,0
1.5684e+05,1.5703e+05,0
1.5709e+05,1.5729e+05,0
1.5731e+05,1.575e+05,0
1.5749e+05,1.5769e+05,2
1.5775e+05,1.5795e+05,0
1.5796e+05,1.5815e+05,0
1.5819e+05,1.5839e+05,0
1.5852e+05,1.5872e+05,0
1.5875e+05,1.5894e+05,0
1.59e+05,1.592e+05,0
1.5924e+05,1.5944e+05,0
1.5949e+05,1.5969e+05,0
1.5972e+05,1.5992e+05,0
1.5995e+05,1.6015e+05,0
1.6016e+05,1.6035e+05,0
1.6037e+05,1.6057e+05,0
1.606e+05,1.608e+05,0
1.6078e+05,1.6098e+05,2
1.6118e+05,1.6138e+05,0
1.6144e+05,1.6164e+05,0
1.6167e+05,1.6187e+05,0
1.6185e+05,1.6205e+05,2
1.6211e+05,1.6231e+05,0
1.6232e+05,1.6252e+05,0
1.6254e+05,1.6274e+05,0
1.6273e+05,1.6293e+05,2
1.6303e+05,1.6322e+05,0
1.6326e+05,1.6346e+05,0
1.6353e+05,1.6373e+05,0
1.6382e+05,1.6402e+05,0
1.6398e+05,1.6418e+05,2
1.6433e+05,1.6453e+05,0
1.6457e+05,1.6477e+05,0
1.6474e+05,1.6494e+05,2
1.6507e+05,1.6527e+05,0
1.6535e+05,1.6555e+05,0
1.6558e+05,1.6578e+05,0
1.6582e+05,1.6602e+05,0
1.6599e+05,1.6619e+05,2
1.6635e+05,1.6655e+05,0
1.6658e+05,1.6678e+05,0
1.6683e+05,1.6703e+05,0
1.6701e+05,1.6721e+05,2
1.6735e+05,1.6755e+05,0
1.676e+05,1.678e+05,0
1.6783e+05,1.6803e+05,0
1.6818e+05,1.6838e+05,0
1.6842e+05,1.6862e+05,0
1.6864e+05,1.6884e+05,0
1.6881e+05,1.6901e+05,2
1.6912e+05,1.6932e+05,0
1.6934e+05,1.6954e+05,0
1.6957e+05,1.6977e+05,0
1.6974e+05,1.6994e+05,2
1.7006e+05,1.7026e+05,0
1.7033e+05,1.7052e+05,0
1.7056e+05,1.7076e+05,0
1.7084e+05,1.7104e+05,0
1.7124e+05,1.7144e+05,0
1.7158e+05,1.7177e+05,0
1.7188e+05,1.7207e+05,0
1.7205e+05,1.7225e+05,2
1.7244e+05,1.7264e+05,0
1.7269e+05,1.7289e+05,0
1.7293e+05,1.7313e+05,0
1.7316e+05,1.7336e+05,0
1.7349e+05,1.7368e+05,0
1.7379e+05,1.7398e+05,0
1.7396e+05,1.7416e+05,2
1.7434e+05,1.7454e+05,0
1.7463e+05,1.7483e+05,0
1.748e+05,1.75e+05,2
1.7509e+05,1.7529e+05,0
1.7532e+05,1.7552e+05,0
1.7561e+05,1.7581e+05,0
1.7587e+05,1.7606e+05,0
1.7619e+05,1.7639e+05,0
1.7644e+05,1.7664e+05,0
1.767e+05,1.769e+05,0
1.7693e+05,1.7713e+05,0
1.7722e+05,1.7742e+05,0
1.7763e+05,1.7782e+05,0
1.7791e+05,1.781e+05,0
1.781e+05,1.783e+05,2
1.7846e+05,1.7866e+05,0
1.7871e+05,1.7891e+05,0
1.7895e+05,1.7915e+05,0
1.7926e+05,1.7946e+05,0
1.7948e+05,1.7968e+05,0
1.7973e+05,1.7993e+05,0
1.7988e+05,1.8008e+05,2
1.802e+05,1.804e+05,0
1.8046e+05,1.8066e+05,0
1.8073e+05,1.8093e+05,0
1.8091e+05,1.8111e+05,2
1.8125e+05,1.8145e+05,0
1.8149e+05,1.8169e+05,0
1.8174e+05,1.8194e+05,0
1.8205e+05,1.8225e+05,0
1.8222e+05,1.8242e+05,2
1.8256e+05,1.8276e+05,0
1.8286e+05,1.8306e+05,0
1.8303e+05,1.8323e+05,2
1.834e+05,1.836e+05,0
1.8383e+05,1.8402e+05,0
1.8407e+05,1.8427e+05,0
1.8428e+05,1.8448e+05,0
1.8454e+05,1.8474e+05,0
1.8479e+05,1.8499e+05,0
1.8504e+05,1.8523e+05,0
1.8529e+05,1.8549e+05,0
1.8546e+05,1.8566e+05,2
1.8588e+05,1.8608e+05,0
1.8614e+05,1.8634e+05,0
1.8639e+05,1.8659e+05,0
1.8657e+05,1.8677e+05,2
1.8687e+05,1.8707e+05,0
1.8717e+05,1.8737e+05,0
1.8734e+05,1.8754e+05,2
1.8773e+05,1.8793e+05,0
1.8796e+05,1.8815e+05,0
1.8816e+05,1.8836e+05,0
1.8837e+05,1.8857e+05,0
1.8854e+05,1.8874e+05,2
1.8884e+05,1.8904e+05,0
1.8908e+05,1.8928e+05,0
1.8922e+05,1.8942e+05,-4
1.8932e+05,1.8952e+05,0
1.8949e+05,1.8969e+05,2
1.8978e+05,1.8997e+05,0
1.9002e+05,1.9022e+05,0
1.9027e+05,1.9047e+05,0
1.9043e+05,1.9063e+05,2
1.9069e+05,1.9089e+05,0
1.9097e+05,1.9117e+05,0
1.9104e+05,1.9124e+05,-4
1.9116e+05,1.9136e+05,2
1.9152e+05,1.9172e+05,0
1.9177e+05,1.9197e+05,0
1.9204e+05,1.9224e+05,0
1.922e+05,1.924e+05,2
1.925e+05,1.927e+05,0
1.9274e+05,1.9294e+05,0
1.9308e+05,1.9328e+05,0
1.9333e+05,1.9353e+05,0
1.936e+05,1.938e+05,0
1.9379e+05,1.9398e+05,2
1.9403e+05,1.9423e+05,0
1.9428e+05,1.9448e+05,0
1.9459e+05,1.9478e+05,0
1.9484e+05,1.9504e+05,0
1.9507e+05,1.9527e+05,0
1.9529e+05,1.9549e+05,0
1.9547e+05,1.9567e+05,2
1.9577e+05,1.9597e+05,0
1.9601e+05,1.962e+05,0
1.9625e+05,1.9645e+05,0
1.9634e+05,1.9653e+05,-1
1.9642e+05,1.9662e+05,2
1.9676e+05,1.9696e+05,0
1.9703e+05,1.9723e+05,0
1.9713e+05,1.9733e+05,-4
1.9719e+05,1.9739e+05,2
1.9747e+05,1.9767e+05,0
1.9777e+05,1.9797e+05,0
1.9796e+05,1.9816e+05,2
1.9812e+05,1.9832e+05,-1
1.9827e+05,1.9847e+05,0
1.9845e+05,1.9865e+05,-4
1.9851e+05,1.9871e+05,0
1.9871e+05,1.9891e+05,0
1.9891e+05,1.9911e+05,0
1.9915e+05,1.9935e+05,0
1.9935e+05,1.9954e+05,0
1.9958e+05,1.9978e+05,0
1.9976e+05,1.9996e+05,2
2.0013e+05,2.0033e+05,0
2.0038e+05,2.0058e+05,0
2.006e+05,2.008e+05,0
2.0077e+05,2.0097e+05,2
2.0107e+05,2.0127e+05,0
2.0134e+05,2.0154e+05,0
2.0151e+05,2.0171e+05,2
2.0188e+05,2.0207e+05,0
2.0216e+05,2.0236e+05,0
2.024e+05,2.026e+05,0
2.0268e+05,2.0288e+05,0
2.0285e+05,2.0305e+05,2
2.0313e+05,2.0332e+05,0
2.0334e+05,2.0354e+05,0
2.0355e+05,2.0375e+05,0
2.0373e+05,2.0393e+05,2
2.0399e+05,2.0419e+05,0
2.0433e+05,2.0453e+05,0
2.0461e+05,2.0481e+05,0
2.0484e+05,2.0504e+05,0
2.0506e+05,2.0526e+05,0
2.0523e+05,2.0542e+05,2
2.0551e+05,2.0571e+05,0
2.0578e+05,2.0598e+05,0
2.0594e+05,2.0614e+05,2
2.0626e+05,2.0646e+05,0
2.0655e+05,2.0675e+05,0
2.068e+05,2.07e+05,0
2.0699e+05,2.0719e+05,2
2.0727e+05,2.0747e+05,0
2.0749e+05,2.0769e+05,0
2.0771e+05,2.0791e+05,0
2.0788e+05,2.0808e+05,2
2.0828e+05,2.0848e+05,0
2.085e+05,2.087e+05,0
2.0878e+05,2.0897e+05,0
2.0895e+05,2.0914e+05,2
2.0924e+05,2.0944e+05,0
2.095e+05,2.097e+05,0
2.0967e+05,2.0987e+05,2
2.0992e+05,2.1012e+05,0
2.1018e+05,2.1037e+05,0
2.1041e+05,2.1061e+05,0
2.1068e+05,2.1087e+05,0
2.1096e+05,2.1116e+05,0
2.1127e+05,2.1147e+05,0
2.1143e+05,2.1163e+05,2
2.1175e+05,2.1195e+05,0
2.1199e+05,2.1219e+05,0
2.1224e+05,2.1244e+05,0
2.1242e+05,2.1262e+05,2
2.1267e+05,2.1287e+05,0
2.129e+05,2.131e+05,0
2.1315e+05,2.1335e+05,0
2.1333e+05,2.1353e+05,2
2.1372e+05,2.1391e+05,0
2.1398e+05,2.1418e+05,0
2.1415e+05,2.1434e+05,2
2.145e+05,2.147e+05,0
2.1473e+05,2.1492e+05,0
2.1506e+05,2.1526e+05,0
2.1531e+05,2.1551e+05,0
2.1555e+05,2.1575e+05,0
2.1578e+05,2.1598e+05,0
2.1595e+05,2.1615e+05,2
2.1622e+05,2.1642e+05,0
2.1662e+05,2.1682e+05,0
2.1689e+05,2.1709e+05,0
2.1707e+05,2.1727e+05,2
2.1743e+05,2.1763e+05,0
2.177e+05,2.179e+05,0
2.1795e+05,2.1815e+05,0
2.1812e+05,2.1832e+05,2
2.184e+05,2.1859e+05,0
2.1862e+05,2.1882e+05,0
2.1886e+05,2.1905e+05,0
2.1911e+05,2.1931e+05,0
2.1933e+05,2.1952e+05,0
2.1961e+05,2.1981e+05,0
2.1978e+05,2.1998e+05,2
2.2013e+05,2.2033e+05,0
2.2048e+05,2.2068e+05,0
2.2073e+05,2.2093e+05,0
2.2099e+05,2.2119e+05,0
2.2117e+05,2.2137e+05,2
2.2153e+05,2.2173e+05,0
2.2178e+05,2.2198e+05,0
2.2203e+05,2.2223e+05,0
2.2225e+05,2.2245e+05,0
2.2242e+05,2.2262e+05,2
2.2272e+05,2.2291e+05,0
2.2293e+05,2.2313e+05,0
2.2316e+05,2.2336e+05,0
2.2333e+05,2.2353e+05,2
2.2361e+05,2.238e+05,0
2.2395e+05,2.2415e+05,0
2.2422e+05,2.2442e+05,0
2.2446e+05,2.2466e+05,0
2.2469e+05,2.2489e+05,0
2.2485e+05,2.2505e+05,2
2.2514e+05,2.2534e+05,0
2.2544e+05,2.2564e+05,0
2.2572e+05,2.2592e+05,0
2.2595e+05,2.2615e+05,0
2.2623e+05,2.2643e+05,0
2.2647e+05,2.2667e+05,0
2.2676e+05,2.2696e+05,0
2.2721e+05,2.2741e+05,0
2.2759e+05,2.2779e+05,0
2.2785e+05,2.2805e+05,0
2.2811e+05,2.283e+05,0
2.2835e+05,2.2855e+05,0
2.2863e+05,2.2883e+05,0
2.2883e+05,2.2903e+05,0
2.2905e+05,2.2925e+05,0
2.293e+05,2.295e+05,0
2.2951e+05,2.2971e+05,0
2.2981e+05,2.3001e+05,0
2.3008e+05,2.3027e+05,0
2.303e+05,2.305e+05,0
2.306e+05,2.308e+05,0
2.3083e+05,2.3102e+05,0
2.3099e+05,2.3119e+05,2
2.3133e+05,2.3153e+05,0
2.3155e+05,2.3175e+05,0
2.3172e+05,2.3192e+05,2
2.3202e+05,2.3222e+05,0
2.3228e+05,2.3248e+05,0
2.3264e+05,2.3284e+05,0
2.3287e+05,2.3307e+05,0
2.3311e+05,2.3331e+05,0
2.3328e+05,2.3348e+05,2
2.3357e+05,2.3377e+05,0
2.3379e+05,2.3399e+05,0
2.3403e+05,2.3423e+05,0
2.3421e+05,2.3441e+05,2
2.3459e+05,2.3479e+05,0
2.3482e+05,2.3502e+05,0
2.3508e+05,2.3528e+05,0
2.3547e+05,2.3567e+05,0
2.3572e+05,2.3592e+05,0
2.3598e+05,2.3618e+05,0
2.3615e+05,2.3635e+05,2
2.3648e+05,2.3668e+05,0
2.3676e+05,2.3696e+05,0
2.3694e+05,2.3714e+05,2
2.3724e+05,2.3744e+05,0
2.3759e+05,2.3779e+05,0
2.3785e+05,2.3805e+05,0
2.3812e+05,2.3832e+05,0
2.3828e+05,2.3848e+05,2
2.3861e+05,2.3881e+05,0
2.3884e+05,2.3904e+05,0
2.3911e+05,2.3931e+05,0
2.3928e+05,2.3948e+05,2
2.3959e+05,2.3979e+05,0
2.3982e+05,2.4002e+05,0
2.4005e+05,2.4025e+05,0
2.4028e+05,2.4047e+05,0
2.4048e+05,2.4068e+05,0
2.4072e+05,2.4092e+05,0
2.409e+05,2.411e+05,2
2.4125e+05,2.4145e+05,0
2.4153e+05,2.4173e+05,0
2.4171e+05,2.4191e+05,2
2.4199e+05,2.4219e+05,0
2.4221e+05,2.4241e+05,0
2.4242e+05,2.4262e+05,0
2.4263e+05,2.4283e+05,0
2.4282e+05,2.4301e+05,2
2.4313e+05,2.4332e+05,0
2.434e+05,2.436e+05,0
2.4359e+05,2.4379e+05,2
2.4389e+05,2.4409e+05,0
2.4414e+05,2.4433e+05,0
2.4436e+05,2.4456e+05,0
2.4459e+05,2.4479e+05,0
2.448e+05,2.45e+05,0
2.4507e+05,2.4527e+05,0
2.4525e+05,2.4545e+05,2
2.4552e+05,2.4572e+05,0
2.4576e+05,2.4596e+05,0
2.46e+05,2.462e+05,0
2.4618e+05,2.4638e+05,2
2.4649e+05,2.4668e+05,0
2.4669e+05,2.4689e+05,0
2.4695e+05,2.4715e+05,0
2.4724e+05,2.4744e+05,0
2.4753e+05,2.4773e+05,0
2.4762e+05,2.4782e+05,-1
2.4771e+05,2.4791e+05,2
2.4802e+05,2.4822e+05,0
2.4829e+05,2.4849e+05,0
2.4845e+05,2.4865e+05,2
2.4877e+05,2.4897e+05,0
2.4905e+05,2.4924e+05,0
2.4922e+05,2.4942e+05,2
2.4936e+05,2.4956e+05,-1
2.4951e+05,2.4971e+05,0
2.4976e+05,2.4996e+05,0
2.5009e+05,2.5029e+05,0
2.5038e+05,2.5058e+05,0
2.5054e+05,2.5074e+05,2
2.5081e+05,2.5101e+05,0
2.5105e+05,2.5125e+05,0
2.5127e+05,2.5147e+05,0
2.5148e+05,2.5168e+05,0
2.5166e+05,2.5186e+05,2
2.5203e+05,2.5223e+05,0
2.5225e+05,2.5245e+05,0
2.5252e+05,2.5272e+05,0
2.5272e+05,2.5291e+05,0
2.5291e+05,2.5311e+05,0
2.5312e+05,2.5332e+05,0
2.5321e+05,2.5341e+05,-1
2.5329e+05,2.5349e+05,2
2.5362e+05,2.5381e+05,0
2.5391e+05,2.541e+05,0
2.5408e+05,2.5428e+05,2
2.5438e+05,2.5458e+05,0
2.5465e+05,2.5485e+05,0
2.5482e+05,2.5501e+05,2
2.5496e+05,2.5515e+05,-1
2.551e+05,2.5529e+05,0
2.555e+05,2.5569e+05,0
2.5575e+05,2.5595e+05,0
2.5602e+05,2.5621e+05,0
2.5619e+05,2.5639e+05,2
2.5651e+05,2.5671e+05,0
2.5679e+05,2.5699e+05,0
2.5697e+05,2.5717e+05,2
2.5725e+05,2.5744e+05,0
2.5746e+05,2.5766e+05,0
2.5769e+05,2.5789e+05,0
2.5791e+05,2.5811e+05,0
2.5815e+05,2.5835e+05,0
2.584e+05,2.586e+05,0
2.5865e+05,2.5884e+05,0
2.5882e+05,2.5902e+05,2
2.5908e+05,2.5928e+05,0
2.593e+05,2.595e+05,0
2.5955e+05,2.5975e+05,0
2.5978e+05,2.5998e+05,0
2.6002e+05,2.6022e+05,0
2.602e+05,2.6039e+05,2
2.6051e+05,2.6071e+05,0
2.6073e+05,2.6093e+05,0
2.6098e+05,2.6118e+05,0
2.6106e+05,2.6126e+05,-1
2.6114e+05,2.6134e+05,2
2.6143e+05,2.6163e+05,0
2.6168e+05,2.6188e+05,0
2.6184e+05,2.6204e+05,2
2.6217e+05,2.6237e+05,0
2.6246e+05,2.6266e+05,0
2.6264e+05,2.6284e+05,2
2.628e+05,2.63e+05,-1
2.6297e+05,2.6317e+05,0
2.632e+05,2.634e+05,0
2.6345e+05,2.6365e+05,0
2.6363e+05,2.6383e+05,2
2.6403e+05,2.6423e+05,0
2.6427e+05,2.6447e+05,0
2.6451e+05,2.6471e+05,0
2.647e+05,2.649e+05,2
2.6499e+05,2.6519e+05,0
2.6525e+05,2.6545e+05,0
2.6548e+05,2.6568e+05,0
2.6571e+05,2.659e+05,0
2.6587e+05,2.6607e+05,2
2.6617e+05,2.6637e+05,0
2.664e+05,2.666e+05,0
2.6666e+05,2.6686e+05,0
2.6688e+05,2.6708e+05,0
2.6711e+05,2.6731e+05,0
2.6737e+05,2.6757e+05,0
2.6761e+05,2.6781e+05,0
2.6781e+05,2.6801e+05,0
2.6804e+05,2.6824e+05,0
2.6827e+05,2.6847e+05,0
2.6861e+05,2.6881e+05,0
2.6888e+05,2.6908e+05,0
2.6912e+05,2.6932e+05,0
2.6929e+05,2.6949e+05,2
2.6959e+05,2.6979e+05,0
2.6984e+05,2.7004e+05,0
2.7007e+05,2.7026e+05,0
2.7023e+05,2.7043e+05,2
2.7051e+05,2.7071e+05,0
2.7072e+05,2.7092e+05,0
2.7097e+05,2.7117e+05,0
2.7113e+05,2.7133e+05,2
2.7149e+05,2.7169e+05,0
2.7191e+05,2.7211e+05,0
2.7232e+05,2.7252e+05,0
2.7256e+05,2.7276e+05,0
2.7279e+05,2.7299e+05,0
2.7288e+05,2.7308e+05,-1
2.7296e+05,2.7316e+05,2
2.7324e+05,2.7344e+05,0
2.7344e+05,2.7364e+05,2
2.737e+05,2.739e+05,0
2.7388e+05,2.7408e+05,2
2.7406e+05,2.7426e+05,-1
2.7425e+05,2.7444e+05,0
2.7473e+05,2.7493e+05,0
2.7509e+05,2.7529e+05,0
2.7546e+05,2.7566e+05,0
2.7571e+05,2.7591e+05,0
2.7596e+05,2.7616e+05,0
2.7621e+05,2.764e+05,0
2.7638e+05,2.7657e+05,2
2.7666e+05,2.7686e+05,0
2.7689e+05,2.7709e+05,0
2.7713e+05,2.7733e+05,0
2.7737e+05,2.7756e+05,0
2.776e+05,2.778e+05,0
2.7777e+05,2.7797e+05,2
2.7807e+05,2.7827e+05,0
2.7838e+05,2.7858e+05,0
2.7865e+05,2.7885e+05,0
2.7888e+05,2.7908e+05,0
2.7911e+05,2.7931e+05,0
2.7947e+05,2.7967e+05,0
2.7995e+05,2.8015e+05,0
2.8044e+05,2.8064e+05,0
2.8071e+05,2.8091e+05,0
2.8087e+05,2.8107e+05,2
2.8118e+05,2.8138e+05,0
2.8143e+05,2.8163e+05,0
2.8167e+05,2.8187e+05,0
2.8203e+05,2.8223e+05,0
2.823e+05,2.825e+05,0
2.8241e+05,2.8261e+05,-1
2.8248e+05,2.8268e+05,2
2.827e+05,2.829e+05,2
2.8283e+05,2.8303e+05,2
2.8305e+05,2.8325e+05,-1
2.8318e+05,2.8338e+05,0
2.8344e+05,2.8364e+05,0
2.8366e+05,2.8386e+05,0
2.839e+05,2.841e+05,0
2.8406e+05,2.8426e+05,2
2.8446e+05,2.8466e+05,0
2.847e+05,2.849e+05,0
2.8511e+05,2.8531e+05,0
2.8533e+05,2.8553e+05,0
2.857e+05,2.859e+05,0
2.8595e+05,2.8614e+05,0
2.8618e+05,2.8638e+05,0
2.8646e+05,2.8666e+05,0
2.8676e+05,2.8696e+05,0
2.8694e+05,2.8714e+05,2
2.8736e+05,2.8756e+05,0
2.8767e+05,2.8787e+05,0
2.8789e+05,2.8809e+05,0
2.8814e+05,2.8833e+05,0
2.884e+05,2.8859e+05,0
2.8856e+05,2.8876e+05,2
2.8906e+05,2.8926e+05,0
2.8931e+05,2.8951e+05,0
2.8948e+05,2.8968e+05,2
2.8977e+05,2.8997e+05,0
2.9002e+05,2.9021e+05,0
2.9042e+05,2.9062e+05,0
2.9068e+05,2.9088e+05,0
2.9093e+05,2.9113e+05,0
2.9118e+05,2.9138e+05,0
2.9134e+05,2.9154e+05,2
2.9164e+05,2.9184e+05,0
2.9181e+05,2.9201e+05,2
2.9212e+05,2.9232e+05,0
2.9252e+05,2.9272e+05,0
2.9278e+05,2.9298e+05,0
2.9307e+05,2.9327e+05,0
2.9336e+05,2.9356e+05,0
2.9353e+05,2.9373e+05,2
2.9404e+05,2.9424e+05,0
2.9428e+05,2.9448e+05,0
2.9449e+05,2.9469e+05,0
2.9473e+05,2.9493e+05,0
2.949e+05,2.951e+05,2
2.9519e+05,2.9539e+05,0
2.9544e+05,2.9564e+05,0
2.9567e+05,2.9587e+05,0
2.9601e+05,2.9621e+05,0
2.9627e+05,2.9647e+05,0
2.9644e+05,2.9664e+05,2
2.9677e+05,2.9697e+05,0
2.9717e+05,2.9737e+05,0
2.9751e+05,2.9771e+05,0
2.9783e+05,2.9803e+05,0
2.983e+05,2.9849e+05,0
2.9865e+05,2.9885e+05,0
2.9887e+05,2.9907e+05,0
2.9919e+05,2.9939e+05,0
2.994e+05,2.996e+05,2
2.9968e+05,2.9988e+05,0
2.9992e+05,3.0012e+05,0
3.0014e+05,3.0034e+05,0
3.0031e+05,3.0051e+05,2
3.006e+05,3.008e+05,0
3.0087e+05,3.0107e+05,0
3.0103e+05,3.0123e+05,2
3.0143e+05,3.0163e+05,0
3.0167e+05,3.0187e+05,0
3.0192e+05,3.0212e+05,0
3.021e+05,3.023e+05,2
3.0238e+05,3.0258e+05,0
3.026e+05,3.028e+05,0
3.0283e+05,3.0303e+05,0
3.0294e+05,3.0313e+05,-1
3.0299e+05,3.0319e+05,2
3.0316e+05,3.0336e+05,2
3.0333e+05,3.0353e+05,2
3.0355e+05,3.0375e+05,-1
3.0364e+05,3.0384e+05,0
3.0401e+05,3.0421e+05,0
3.0437e+05,3.0457e+05,0
3.0462e+05,3.0482e+05,0
3.0485e+05,3.0505e+05,0
3.0509e+05,3.0529e+05,0
3.054e+05,3.056e+05,0
3.0557e+05,3.0577e+05,2
3.0589e+05,3.0609e+05,0
3.0626e+05,3.0646e+05,0
3.065e+05,3.0669e+05,0
3.0672e+05,3.0691e+05,0
3.0693e+05,3.0713e+05,0
3.0709e+05,3.0729e+05,2
3.0738e+05,3.0758e+05,0
3.076e+05,3.078e+05,0
3.0787e+05,3.0807e+05,0
3.0832e+05,3.0852e+05,0
3.0861e+05,3.0881e+05,0
3.0877e+05,3.0897e+05,2
3.0912e+05,3.0932e+05,0
3.0937e+05,3.0957e+05,0
3.0959e+05,3.0979e+05,0
3.0989e+05,3.1009e+05,0
3.1012e+05,3.1032e+05,0
3.1038e+05,3.1058e+05,0
3.1079e+05,3.1099e+05,0
3.1104e+05,3.1124e+05,0
3.1132e+05,3.1152e+05,0
3.1148e+05,3.1168e+05,2
3.1175e+05,3.1194e+05,0
3.1197e+05,3.1217e+05,0
3.1225e+05,3.1244e+05,0
3.1242e+05,3.1262e+05,2
3.1276e+05,3.1295e+05,0
3.1299e+05,3.1319e+05,0
3.1319e+05,3.1339e+05,0
3.1337e+05,3.1357e+05,2
3.1364e+05,3.1384e+05,0
3.1385e+05,3.1405e+05,0
3.1408e+05,3.1428e+05,0
3.1427e+05,3.1447e+05,2
3.1457e+05,3.1476e+05,0
3.1482e+05,3.1502e+05,0
3.1512e+05,3.1532e+05,0
3.1534e+05,3.1554e+05,0
3.1566e+05,3.1586e+05,0
3.1592e+05,3.1611e+05,0
3.1615e+05,3.1635e+05,0
3.1632e+05,3.1652e+05,2
3.1662e+05,3.1682e+05,0
3.1687e+05,3.1707e+05,0
3.1717e+05,3.1737e+05,0
3.1733e+05,3.1753e+05,2
3.1767e+05,3.1787e+05,0
3.1788e+05,3.1808e+05,0
3.1807e+05,3.1827e+05,0
3.1835e+05,3.1855e+05,0
3.1859e+05,3.1879e+05,0
3.1884e+05,3.1904e+05,0
3.1902e+05,3.1922e+05,2
3.1933e+05,3.1953e+05,0
3.1957e+05,3.1977e+05,0
3.1981e+05,3.2001e+05,0
3.2005e+05,3.2024e+05,0
3.2031e+05,3.2051e+05,0
3.2056e+05,3.2076e+05,0
3.2085e+05,3.2105e+05,0
3.2111e+05,3.2131e+05,0
3.2136e+05,3.2156e+05,0
3.2153e+05,3.2173e+05,2
3.2189e+05,3.2209e+05,0
3.2211e+05,3.2231e+05,0
3.2237e+05,3.2257e+05,0
3.2261e+05,3.2281e+05,0
3.2283e+05,3.2303e+05,0
3.2306e+05,3.2326e+05,0
3.2324e+05,3.2344e+05,2
3.236e+05,3.238e+05,0
3.2388e+05,3.2408e+05,0
3.2404e+05,3.2424e+05,2
3.2439e+05,3.2459e+05,0
3.2464e+05,3.2484e+05,0
3.2496e+05,3.2516e+05,0
3.2518e+05,3.2538e+05,0
3.2541e+05,3.2561e+05,0
3.257e+05,3.259e+05,0
3.2587e+05,3.2607e+05,2
3.2615e+05,3.2635e+05,0
3.2646e+05,3.2666e+05,0
3.2662e+05,3.2682e+05,2
3.2704e+05,3.2724e+05,0
3.2732e+05,3.2752e+05,0
3.2755e+05,3.2775e+05,0
3.2778e+05,3.2798e+05,0
3.2795e+05,3.2814e+05,2
3.2845e+05,3.2865e+05,0
3.2893e+05,3.2913e+05,0
3.2927e+05,3.2947e+05,0
3.296e+05,3.298e+05,0
3.2986e+05,3.3006e+05,0
3.301e+05,3.303e+05,0
3.3033e+05,3.3053e+05,0
3.3055e+05,3.3075e+05,0
3.3071e+05,3.3091e+05,2
3.31e+05,3.312e+05,0
3.3127e+05,3.3147e+05,0
3.3144e+05,3.3164e+05,2
3.3194e+05,3.3214e+05,0
3.322e+05,3.324e+05,0
3.3243e+05,3.3263e+05,0
3.3261e+05,3.3281e+05,2
3.3298e+05,3.3318e+05,0
3.3319e+05,3.3339e+05,0
3.3346e+05,3.3366e+05,0
3.3371e+05,3.3391e+05,0
3.3395e+05,3.3415e+05,0
3.342e+05,3.344e+05,0
3.3437e+05,3.3457e+05,2
3.3478e+05,3.3498e+05,0
3.3499e+05,3.3519e+05,0
3.3522e+05,3.3542e+05,0
3.3548e+05,3.3568e+05,0
3.3571e+05,3.3591e+05,0
3.36e+05,3.362e+05,0
3.3628e+05,3.3648e+05,0
3.3652e+05,3.3672e+05,0
3.3676e+05,3.3695e+05,0
3.3701e+05,3.3721e+05,0
3.3737e+05,3.3757e+05,0
3.3766e+05,3.3786e+05,0
3.3782e+05,3.3802e+05,2
3.3816e+05,3.3836e+05,0
3.384e+05,3.386e+05,0
3.3865e+05,3.3885e+05,0
3.3888e+05,3.3908e+05,0
3.3904e+05,3.3924e+05,2
3.3935e+05,3.3955e+05,0
3.3957e+05,3.3976e+05,0
3.3981e+05,3.4e+05,0
3.4004e+05,3.4024e+05,0
3.4028e+05,3.4048e+05,0
3.4055e+05,3.4075e+05,0
3.4079e+05,3.4099e+05,0
3.4107e+05,3.4127e+05,0
3.4123e+05,3.4143e+05,2
3.4158e+05,3.4178e+05,0
3.4182e+05,3.4202e+05,0
3.4221e+05,3.424e+05,0
3.4244e+05,3.4264e+05,0
3.427e+05,3.429e+05,0
3.4287e+05,3.4307e+05,2
3.4321e+05,3.4341e+05,0
3.4344e+05,3.4363e+05,0
3.4373e+05,3.4393e+05,0
3.4398e+05,3.4418e+05,0
3.4415e+05,3.4435e+05,2
3.4442e+05,3.4462e+05,0
3.4464e+05,3.4484e+05,0
3.4486e+05,3.4506e+05,0
3.4505e+05,3.4525e+05,2
3.4535e+05,3.4555e+05,0
3.4559e+05,3.4579e+05,0
3.4583e+05,3.4603e+05,0
3.4605e+05,3.4625e+05,0
3.4629e+05,3.4649e+05,0
3.4651e+05,3.4671e+05,0
3.4673e+05,3.4693e+05,0
3.4698e+05,3.4718e+05,0
3.4737e+05,3.4757e+05,0
3.4757e+05,3.4777e+05,0
3.4783e+05,3.4803e+05,0
3.4792e+05,3.4812e+05,-1
3.4801e+05,3.4821e+05,2
3.4847e+05,3.4867e+05,0
3.4877e+05,3.4897e+05,0
3.4894e+05,3.4914e+05,2
3.4925e+05,3.4945e+05,0
3.4952e+05,3.4972e+05,0
3.4969e+05,3.4988e+05,2
3.5e+05,3.502e+05,0
3.5028e+05,3.5048e+05,0
3.5044e+05,3.5064e+05,2
3.506e+05,3.508e+05,-1
3.5076e+05,3.5096e+05,0
3.5101e+05,3.5121e+05,0
3.5122e+05,3.5142e+05,0
3.5152e+05,3.5172e+05,0
3.5177e+05,3.5196e+05,0
3.5207e+05,3.5227e+05,0
3.5229e+05,3.5248e+05,0
3.525e+05,3.5269e+05,0
3.5269e+05,3.5289e+05,0
3.5291e+05,3.5311e+05,0
3.5315e+05,3.5335e+05,0
3.5343e+05,3.5363e+05,0
3.5371e+05,3.5391e+05,0
3.5388e+05,3.5408e+05,2
3.5421e+05,3.5441e+05,0
3.5443e+05,3.5463e+05,0
3.5466e+05,3.5486e+05,0
3.5482e+05,3.5502e+05,2
3.5517e+05,3.5537e+05,0
3.554e+05,3.556e+05,0
3.5566e+05,3.5586e+05,0
3.5588e+05,3.5608e+05,0
3.5611e+05,3.5631e+05,0
3.563e+05,3.565e+05,2
3.5656e+05,3.5676e+05,0
3.568e+05,3.57e+05,0
3.5702e+05,3.5722e+05,0
3.5718e+05,3.5738e+05,2
3.5752e+05,3.5772e+05,0
3.5792e+05,3.5812e+05,0
3.5825e+05,3.5845e+05,0
3.5849e+05,3.5869e+05,0
3.5871e+05,3.5891e+05,0
3.5894e+05,3.5914e+05,0
3.591e+05,3.593e+05,2
3.5937e+05,3.5957e+05,0
3.5965e+05,3.5985e+05,0
3.5982e+05,3.6002e+05,2
3.6019e+05,3.6039e+05,0
3.6043e+05,3.6063e+05,0
3.6068e+05,3.6088e+05,0
3.6084e+05,3.6104e+05,2
3.6117e+05,3.6137e+05,0
3.6141e+05,3.6161e+05,0
3.6181e+05,3.6201e+05,0
3.6209e+05,3.6229e+05,0
3.6225e+05,3.6245e+05,2
3.6258e+05,3.6277e+05,0
3.629e+05,3.6309e+05,0
3.6312e+05,3.6331e+05,0
3.6337e+05,3.6357e+05,0
3.6354e+05,3.6374e+05,2
3.6383e+05,3.6403e+05,0
3.6408e+05,3.6428e+05,0
3.6431e+05,3.6451e+05,0
3.6457e+05,3.6477e+05,0
3.6465e+05,3.6485e+05,-1
3.6474e+05,3.6494e+05,2
3.6505e+05,3.6525e+05,0
3.6529e+05,3.6549e+05,0
3.6546e+05,3.6566e+05,2
3.6578e+05,3.6598e+05,0
3.6608e+05,3.6628e+05,0
3.6625e+05,3.6645e+05,2
3.6642e+05,3.6662e+05,-1
3.666e+05,3.6679e+05,0
3.6683e+05,3.6703e+05,0
3.6713e+05,3.6733e+05,0
3.6728e+05,3.6748e+05,2
3.6758e+05,3.6778e+05,0
3.6782e+05,3.6802e+05,0
3.68e+05,3.682e+05,2
3.6828e+05,3.6848e+05,0
3.6845e+05,3.6865e+05,2
3.6891e+05,3.6911e+05,0
3.6916e+05,3.6936e+05,0
3.6944e+05,3.6964e+05,0
3.696e+05,3.698e+05,2
3.699e+05,3.701e+05,0
3.7013e+05,3.7033e+05,0
3.7037e+05,3.7057e+05,0
3.7055e+05,3.7075e+05,2
3.7091e+05,3.7111e+05,0
3.712e+05,3.714e+05,0
3.7137e+05,3.7157e+05,2
3.7174e+05,3.7194e+05,0
3.7196e+05,3.7216e+05,0
3.7218e+05,3.7238e+05,0
3.7243e+05,3.7263e+05,0
3.7261e+05,3.7281e+05,2
3.7294e+05,3.7314e+05,0
3.7327e+05,3.7347e+05,0
3.7343e+05,3.7363e+05,2
3.7381e+05,3.7401e+05,0
3.7406e+05,3.7426e+05,0
3.7437e+05,3.7456e+05,0
3.7464e+05,3.7484e+05,0
3.749e+05,3.751e+05,0
3.7508e+05,3.7528e+05,2
3.7543e+05,3.7563e+05,0
3.7577e+05,3.7597e+05,0
3.76e+05,3.762e+05,0
3.7631e+05,3.7651e+05,0
3.7647e+05,3.7667e+05,2
3.7677e+05,3.7696e+05,0
3.77e+05,3.772e+05,0
3.7724e+05,3.7744e+05,0
3.7742e+05,3.7762e+05,-4
3.7747e+05,3.7767e+05,0
3.7765e+05,3.7784e+05,2
3.7795e+05,3.7814e+05,0
3.7833e+05,3.7853e+05,0
3.7838e+05,3.7858e+05,-4
3.7855e+05,3.7875e+05,0
3.788e+05,3.7899e+05,0
3.7899e+05,3.7919e+05,2
3.7926e+05,3.7946e+05,0
3.795e+05,3.797e+05,0
3.7975e+05,3.7995e+05,0
3.7994e+05,3.8014e+05,2
3.8022e+05,3.8042e+05,0
3.8045e+05,3.8065e+05,0
3.8068e+05,3.8088e+05,0
3.8085e+05,3.8104e+05,2
3.812e+05,3.814e+05,0
3.8145e+05,3.8165e+05,0
3.8169e+05,3.8189e+05,0
3.8186e+05,3.8206e+05,2
3.8213e+05,3.8233e+05,0
3.8255e+05,3.8275e+05,0
3.8278e+05,3.8298e+05,0
3.8301e+05,3.8321e+05,0
3.8324e+05,3.8344e+05,0
3.8342e+05,3.8362e+05,2
3.8373e+05,3.8392e+05,0
3.8412e+05,3.8432e+05,0
3.8439e+05,3.8459e+05,0
3.8463e+05,3.8482e+05,0
3.8486e+05,3.8506e+05,0
3.8511e+05,3.8531e+05,0
3.8527e+05,3.8547e+05,2
3.8561e+05,3.8581e+05,0
3.8588e+05,3.8607e+05,0
3.8617e+05,3.8637e+05,0
3.8634e+05,3.8654e+05,2
3.8668e+05,3.8688e+05,2
3.8692e+05,3.8712e+05,0
3.8709e+05,3.8728e+05,2
3.8741e+05,3.8761e+05,0
3.8781e+05,3.8801e+05,0
3.8814e+05,3.8834e+05,0
3.884e+05,3.886e+05,0
3.8863e+05,3.8883e+05,0
3.8887e+05,3.8907e+05,0
3.8905e+05,3.8925e+05,2
3.8938e+05,3.8958e+05,0
3.8961e+05,3.898e+05,0
3.8986e+05,3.9006e+05,0
3.9003e+05,3.9022e+05,2
3.9041e+05,3.9061e+05,0
3.9066e+05,3.9086e+05,0
3.909e+05,3.911e+05,0
3.9109e+05,3.9129e+05,2
3.9141e+05,3.9161e+05,0
3.9165e+05,3.9185e+05,0
3.9189e+05,3.9209e+05,0
3.9207e+05,3.9227e+05,2
3.9262e+05,3.9282e+05,0
3.931e+05,3.933e+05,0
3.9343e+05,3.9363e+05,0
3.9369e+05,3.9389e+05,0
3.9397e+05,3.9417e+05,0
3.9414e+05,3.9434e+05,2
3.945e+05,3.947e+05,0
3.9496e+05,3.9515e+05,0
3.9521e+05,3.9541e+05,0
3.9532e+05,3.9552e+05,-4
3.9537e+05,3.9557e+05,2
3.9564e+05,3.9584e+05,0
3.9577e+05,3.9596e+05,-4
3.9604e+05,3.9624e+05,0
3.963e+05,3.965e+05,0
3.9654e+05,3.9674e+05,0
3.9678e+05,3.9698e+05,0
3.9709e+05,3.9729e+05,0
3.975e+05,3.977e+05,0
3.9777e+05,3.9796e+05,0
3.9793e+05,3.9813e+05,2
3.9833e+05,3.9853e+05,0
3.9881e+05,3.9901e+05,0
3.9906e+05,3.9926e+05,0
3.9934e+05,3.9954e+05,0
3.995e+05,3.997e+05,2
3.9983e+05,4.0003e+05,0
4.0008e+05,4.0027e+05,0
4.0034e+05,4.0054e+05,0
4.005e+05,4.007e+05,2
4.0081e+05,4.0101e+05,0
4.0105e+05,4.0125e+05,0
4.0151e+05,4.0171e+05,0
4.0181e+05,4.0201e+05,0
4.0203e+05,4.0223e+05,0
4.0226e+05,4.0246e+05,0
4.0256e+05,4.0276e+05,0
4.0273e+05,4.0293e+05,2
4.0306e+05,4.0326e+05,0
4.0332e+05,4.0352e+05,0
4.0354e+05,4.0374e+05,0
4.0377e+05,4.0397e+05,0
4.0393e+05,4.0413e+05,2
4.0424e+05,4.0444e+05,0
4.0452e+05,4.0472e+05,0
4.0468e+05,4.0488e+05,2
4.0497e+05,4.0517e+05,0
4.0522e+05,4.0542e+05,0
4.0548e+05,4.0568e+05,0
4.0566e+05,4.0586e+05,2
4.0603e+05,4.0623e+05,0
4.0627e+05,4.0647e+05,0
4.0651e+05,4.0671e+05,0
4.0668e+05,4.0688e+05,2
4.0709e+05,4.0729e+05,0
4.0738e+05,4.0758e+05,0
4.0783e+05,4.0802e+05,0
4.0826e+05,4.0846e+05,0
4.0851e+05,4.0871e+05,0
4.0867e+05,4.0887e+05,2
4.0897e+05,4.0917e+05,0
4.0919e+05,4.0939e+05,0
4.0944e+05,4.0963e+05,0
4.0961e+05,4.0981e+05,2
4.0997e+05,4.1017e+05,0
4.103e+05,4.105e+05,0
4.1046e+05,4.1066e+05,2
4.108e+05,4.11e+05,0
4.1103e+05,4.1123e+05,0
4.1127e+05,4.1147e+05,0
4.1144e+05,4.1164e+05,2
4.1183e+05,4.1202e+05,0
4.1207e+05,4.1227e+05,0
4.1232e+05,4.1252e+05,0
4.1249e+05,4.1269e+05,2
4.1282e+05,4.1302e+05,0
4.1311e+05,4.1331e+05,0
4.1327e+05,4.1347e+05,2
4.1381e+05,4.1401e+05,0
4.1405e+05,4.1425e+05,0
4.1429e+05,4.1449e+05,0
4.1459e+05,4.1479e+05,0
4.1481e+05,4.15e+05,0
4.1509e+05,4.1529e+05,0
4.1532e+05,4.1552e+05,0
4.1546e+05,4.1566e+05,-4
4.1556e+05,4.1576e+05,0
4.1581e+05,4.1601e+05,0
4.1594e+05,4.1614e+05,-4
4.1598e+05,4.1618e+05,2
4.1635e+05,4.1655e+05,0
4.1652e+05,4.1672e+05,2
4.1683e+05,4.1703e+05,0
4.1709e+05,4.1729e+05,0
4.1731e+05,4.1751e+05,0
4.1754e+05,4.1774e+05,0
4.1783e+05,4.1803e+05,0
4.181e+05,4.183e+05,0
4.1836e+05,4.1856e+05,0
4.1865e+05,4.1885e+05,0
4.1898e+05,4.1917e+05,0
4.1921e+05,4.1941e+05,0
4.1947e+05,4.1967e+05,0
4.1988e+05,4.2008e+05,0
4.2012e+05,4.2031e+05,0
4.2037e+05,4.2057e+05,0
4.2064e+05,4.2083e+05,0
4.208e+05,4.21e+05,2
4.211e+05,4.213e+05,0
4.2132e+05,4.2152e+05,0
4.216e+05,4.218e+05,0
4.2191e+05,4.2211e+05,0
4.2207e+05,4.2227e+05,2
4.2243e+05,4.2263e+05,0
4.2269e+05,4.2289e+05,0
4.2295e+05,4.2315e+05,0
4.2312e+05,4.2332e+05,2
4.2343e+05,4.2363e+05,0
4.2366e+05,4.2386e+05,0
4.2388e+05,4.2408e+05,0
4.2412e+05,4.2432e+05,0
4.2428e+05,4.2448e+05,2
4.2461e+05,4.2481e+05,0
4.2487e+05,4.2507e+05,0
4.2505e+05,4.2525e+05,2
4.2529e+05,4.2549e+05,-4
4.2539e+05,4.2559e+05,0
4.2564e+05,4.2584e+05,0
4.2587e+05,4.2607e+05,0
4.2604e+05,4.2624e+05,2
4.264e+05,4.266e+05,0
4.2669e+05,4.2689e+05,-4
4.2673e+05,4.2693e+05,0
4.2698e+05,4.2718e+05,0
4.2721e+05,4.2741e+05,0
4.2746e+05,4.2766e+05,0
4.2762e+05,4.2782e+05,2
4.2794e+05,4.2813e+05,0
4.2824e+05,4.2844e+05,0
4.2849e+05,4.2869e+05,0
4.289e+05,4.291e+05,0
4.2924e+05,4.2943e+05,0
4.2955e+05,4.2975e+05,0
4.298e+05,4.3e+05,0
4.3004e+05,4.3024e+05,0
4.3033e+05,4.3053e+05,0
4.3064e+05,4.3084e+05,0
4.308e+05,4.31e+05,2
4.3113e+05,4.3133e+05,0
4.3138e+05,4.3158e+05,0
4.3163e+05,4.3183e+05,0
4.3181e+05,4.3201e+05,2
4.3208e+05,4.3228e+05,0
4.323e+05,4.325e+05,0
4.3263e+05,4.3283e+05,0
4.3286e+05,4.3306e+05,0
4.3309e+05,4.3328e+05,0
4.3329e+05,4.3348e+05,2
4.3374e+05,4.3394e+05,0
4.3418e+05,4.3438e+05,0
4.3441e+05,4.3461e+05,0
4.3464e+05,4.3484e+05,0
4.3506e+05,4.3526e+05,0
4.3531e+05,4.3551e+05,0
4.3557e+05,4.3577e+05,0
4.3588e+05,4.3607e+05,0
4.3612e+05,4.3632e+05,0
4.3641e+05,4.3661e+05,0
4.3659e+05,4.3679e+05,2
4.3691e+05,4.3711e+05,0
4.3707e+05,4.3727e+05,2
4.3735e+05,4.3755e+05,0
4.3759e+05,4.3779e+05,0
4.3782e+05,4.3802e+05,0
4.3801e+05,4.3821e+05,2
4.3831e+05,4.3851e+05,0
4.3855e+05,4.3875e+05,0
4.3897e+05,4.3917e+05,0
4.3931e+05,4.3951e+05,0
4.3962e+05,4.3982e+05,0
4.3979e+05,4.3999e+05,2
4.4012e+05,4.4032e+05,0
4.4052e+05,4.4072e+05,0
4.4074e+05,4.4094e+05,0
4.4097e+05,4.4117e+05,0
4.4114e+05,4.4134e+05,2
4.414e+05,4.416e+05,0
4.4166e+05,4.4186e+05,0
4.4185e+05,4.4205e+05,2
4.4215e+05,4.4235e+05,0
4.424e+05,4.426e+05,0
4.4268e+05,4.4288e+05,0
4.4284e+05,4.4304e+05,2
4.4314e+05,4.4334e+05,0
4.4338e+05,4.4358e+05,0
4.437e+05,4.439e+05,0
4.4396e+05,4.4416e+05,0
4.442e+05,4.444e+05,0
4.4448e+05,4.4468e+05,0
4.4464e+05,4.4484e+05,2
4.4493e+05,4.4513e+05,0
4.452e+05,4.454e+05,0
4.4537e+05,4.4557e+05,2
4.4567e+05,4.4587e+05,0
4.461e+05,4.463e+05,0
4.4636e+05,4.4656e+05,0
4.4663e+05,4.4683e+05,0
4.4704e+05,4.4724e+05,0
4.4728e+05,4.4748e+05,0
4.4756e+05,4.4776e+05,0
4.4772e+05,4.4792e+05,2
4.4828e+05,4.4848e+05,0
4.4872e+05,4.4892e+05,0
4.49e+05,4.492e+05,0
4.4916e+05,4.4936e+05,2
4.4947e+05,4.4967e+05,0
4.4979e+05,4.4998e+05,0
4.4995e+05,4.5014e+05,2
4.5025e+05,4.5045e+05,2
4.5059e+05,4.5079e+05,0
4.5083e+05,4.5103e+05,0
4.5107e+05,4.5127e+05,0
4.5125e+05,4.5145e+05,2
4.5154e+05,4.5174e+05,0
4.5186e+05,4.5206e+05,0
4.5202e+05,4.5222e+05,2
4.5235e+05,4.5255e+05,0
4.5261e+05,4.5281e+05,0
4.531e+05,4.533e+05,0
4.5357e+05,4.5377e+05,0
4.538e+05,4.54e+05,0
4.5416e+05,4.5436e+05,0
4.5458e+05,4.5478e+05,0
4.5483e+05,4.5503e+05,0
4.5509e+05,4.5529e+05,0
4.5526e+05,4.5546e+05,2
4.5568e+05,4.5588e+05,0
4.5592e+05,4.5612e+05,0
4.5617e+05,4.5637e+05,0
4.5633e+05,4.5653e+05,2
4.5674e+05,4.5694e+05,0
4.5721e+05,4.5741e+05,0
4.5748e+05,4.5768e+05,0
4.5776e+05,4.5796e+05,0
4.5792e+05,4.5812e+05,2
4.5833e+05,4.5853e+05,0
4.5857e+05,4.5877e+05,0
4.5879e+05,4.5899e+05,0
4.5914e+05,4.5934e+05,0
4.5946e+05,4.5966e+05,0
4.5972e+05,4.5992e+05,0
4.5989e+05,4.6009e+05,2
4.6018e+05,4.6038e+05,0
4.6049e+05,4.6069e+05,0
4.6065e+05,4.6085e+05,2
4.6096e+05,4.6116e+05,0
4.6132e+05,4.6152e+05,0
4.6157e+05,4.6177e+05,0
4.6183e+05,4.6203e+05,0
4.62e+05,4.622e+05,2
4.6229e+05,4.6249e+05,0
4.6251e+05,4.6271e+05,0
4.6276e+05,4.6296e+05,0
4.6293e+05,4.6313e+05,2
4.6324e+05,4.6344e+05,0
4.6353e+05,4.6373e+05,0
4.6379e+05,4.6399e+05,0
4.6396e+05,4.6416e+05,2
4.6425e+05,4.6445e+05,0
4.6448e+05,4.6468e+05,0
4.6475e+05,4.6495e+05,0
4.649e+05,4.651e+05,2
4.6524e+05,4.6543e+05,0
4.6548e+05,4.6568e+05,0
4.6573e+05,4.6593e+05,0
4.6604e+05,4.6624e+05,0
4.663e+05,4.665e+05,0
4.6656e+05,4.6676e+05,0
4.6681e+05,4.6701e+05,0
4.6714e+05,4.6734e+05,0
4.6763e+05,4.6783e+05,0
4.682e+05,4.684e+05,0
4.6845e+05,4.6865e+05,0
4.6861e+05,4.6881e+05,2
4.6896e+05,4.6916e+05,0
4.6918e+05,4.6938e+05,0
4.694e+05,4.696e+05,0
4.6987e+05,4.7007e+05,0
4.7029e+05,4.7049e+05,0
4.7053e+05,4.7073e+05,0
4.7078e+05,4.7098e+05,0
4.7095e+05,4.7115e+05,2
4.7131e+05,4.7151e+05,0
4.7171e+05,4.7191e+05,0
4.7193e+05,4.7213e+05,0
4.7217e+05,4.7237e+05,0
4.7241e+05,4.7261e+05,0
4.7258e+05,4.7278e+05,2
4.7289e+05,4.7309e+05,0
4.7313e+05,4.7332e+05,0
4.7335e+05,4.7354e+05,0
4.736e+05,4.738e+05,0
4.7383e+05,4.7403e+05,0
4.7406e+05,4.7426e+05,0
4.7429e+05,4.7449e+05,0
4.7458e+05,4.7478e+05,0
4.7485e+05,4.7505e+05,0
4.7518e+05,4.7538e+05,0
4.754e+05,4.756e+05,0
4.7562e+05,4.7582e+05,0
4.7591e+05,4.7611e+05,0
4.7617e+05,4.7637e+05,0
4.7658e+05,4.7677e+05,0
4.7703e+05,4.7723e+05,0
4.7729e+05,4.7749e+05,0
4.7747e+05,4.7766e+05,2
4.7773e+05,4.7793e+05,0
4.7797e+05,4.7817e+05,0
4.7829e+05,4.7849e+05,0
4.7854e+05,4.7874e+05,0
4.7897e+05,4.7917e+05,0
4.7923e+05,4.7943e+05,0
4.7961e+05,4.7981e+05,0
4.8004e+05,4.8024e+05,0
4.8027e+05,4.8047e+05,0
4.805e+05,4.807e+05,0
4.8083e+05,4.8103e+05,0
4.8109e+05,4.8129e+05,0
4.8141e+05,4.8161e+05,0
4.8174e+05,4.8194e+05,0
4.819e+05,4.821e+05,2
4.8237e+05,4.8257e+05,0
4.8263e+05,4.8283e+05,0
4.8295e+05,4.8315e+05,0
4.8323e+05,4.8343e+05,0
4.8338e+05,4.8358e+05,2
4.8377e+05,4.8397e+05,0
4.8401e+05,4.8421e+05,0
4.8433e+05,4.8453e+05,0
4.8456e+05,4.8476e+05,0
4.848e+05,4.85e+05,0
4.8528e+05,4.8548e+05,0
4.8575e+05,4.8595e+05,0
4.8598e+05,4.8618e+05,0
4.8628e+05,4.8648e+05,0
4.8652e+05,4.8672e+05,0
4.8675e+05,4.8695e+05,0
4.8702e+05,4.8722e+05,0
4.8727e+05,4.8747e+05,0
4.8752e+05,4.8772e+05,0
4.8783e+05,4.8803e+05,0
4.8828e+05,4.8848e+05,0
4.8854e+05,4.8874e+05,0
4.887e+05,4.889e+05,2
4.8913e+05,4.8933e+05,0
4.894e+05,4.896e+05,0
4.8965e+05,4.8985e+05,0
4.8983e+05,4.9002e+05,2
4.9013e+05,4.9032e+05,0
4.9032e+05,4.9051e+05,2
4.9068e+05,4.9088e+05,0
4.9091e+05,4.9111e+05,0
4.9123e+05,4.9143e+05,0
4.9148e+05,4.9167e+05,0
4.9175e+05,4.9195e+05,0
4.922e+05,4.924e+05,0
4.9246e+05,4.9266e+05,0
4.9263e+05,4.9283e+05,2
4.9293e+05,4.9313e+05,0
4.9316e+05,4.9336e+05,0
4.9342e+05,4.9361e+05,0
4.9369e+05,4.9388e+05,0
4.9395e+05,4.9415e+05,0
4.9423e+05,4.9443e+05,0
4.9447e+05,4.9467e+05,0
4.9481e+05,4.9501e+05,0
4.9514e+05,4.9534e+05,0
4.9539e+05,4.9559e+05,0
4.9567e+05,4.9587e+05,0
4.9601e+05,4.9621e+05,0
4.9628e+05,4.9648e+05,0
4.9658e+05,4.9677e+05,0
4.9674e+05,4.9694e+05,2
4.9705e+05,4.9725e+05,0
4.973e+05,4.975e+05,0
4.9754e+05,4.9774e+05,0
4.9785e+05,4.9805e+05,0
4.9829e+05,4.9849e+05,0
4.9861e+05,4.988e+05,0
4.9877e+05,4.9897e+05,2
4.9918e+05,4.9938e+05,0
4.9963e+05,4.9983e+05,0
4.999e+05,5.001e+05,0
5.0019e+05,5.0038e+05,0
5.0054e+05,5.0073e+05,0
5.0082e+05,5.0102e+05,0
5.0125e+05,5.0145e+05,0
5.0149e+05,5.0169e+05,0
5.0192e+05,5.0212e+05,0
5.0247e+05,5.0267e+05,0
5.0272e+05,5.0292e+05,0
5.0298e+05,5.0318e+05,0
5.0314e+05,5.0334e+05,2
5.0351e+05,5.0371e+05,0
5.0391e+05,5.0411e+05,0
5.0424e+05,5.0443e+05,0
5.0456e+05,5.0476e+05,0
5.0477e+05,5.0497e+05,2
5.0515e+05,5.0535e+05,0
5.0539e+05,5.0559e+05,0
5.0568e+05,5.0588e+05,0
5.0619e+05,5.0639e+05,0
5.0645e+05,5.0665e+05,0
5.0663e+05,5.0683e+05,2
5.0696e+05,5.0716e+05,0
5.0731e+05,5.0751e+05,0
5.0755e+05,5.0775e+05,0
5.079e+05,5.081e+05,0
5.0824e+05,5.0844e+05,0
5.0852e+05,5.0872e+05,0
5.0895e+05,5.0915e+05,0
5.0923e+05,5.0943e+05,0
5.0949e+05,5.0969e+05,0
5.0966e+05,5.0986e+05,2
5.1001e+05,5.102e+05,0
5.1033e+05,5.1052e+05,0
5.1049e+05,5.1069e+05,2
5.1078e+05,5.1098e+05,0
5.1104e+05,5.1124e+05,0
5.1135e+05,5.1155e+05,0
5.1152e+05,5.1172e+05,2
5.1182e+05,5.1202e+05,0
5.1208e+05,5.1228e+05,0
5.1224e+05,5.1244e+05,2
5.1256e+05,5.1276e+05,0
5.1283e+05,5.1303e+05,0
5.1314e+05,5.1334e+05,0
5.1342e+05,5.1362e+05,0
5.1372e+05,5.1392e+05,0
5.1401e+05,5.1421e+05,0
5.1425e+05,5.1445e+05,0
5.1455e+05,5.1475e+05,0
5.1471e+05,5.1491e+05,2
5.1509e+05,5.1529e+05,0
5.1557e+05,5.1577e+05,0
5.1583e+05,5.1603e+05,0
5.1612e+05,5.1632e+05,0
5.1644e+05,5.1663e+05,0
5.167e+05,5.169e+05,0
5.1697e+05,5.1717e+05,0
5.1751e+05,5.1771e+05,0
5.1785e+05,5.1805e+05,0
5.1811e+05,5.1831e+05,0
5.1838e+05,5.1858e+05,0
5.1863e+05,5.1883e+05,0
5.1888e+05,5.1908e+05,0
5.1912e+05,5.1932e+05,0
5.1937e+05,5.1957e+05,0
5.1954e+05,5.1974e+05,2
5.1989e+05,5.2008e+05,0
5.2015e+05,5.2034e+05,0
5.2039e+05,5.2058e+05,0
5.2091e+05,5.2111e+05,0
5.2124e+05,5.2144e+05,0
5.2151e+05,5.2171e+05,0
5.2177e+05,5.2197e+05,0
5.2195e+05,5.2215e+05,2
5.2227e+05,5.2247e+05,0
5.225e+05,5.227e+05,0
5.2274e+05,5.2294e+05,0
5.2296e+05,5.2316e+05,0
5.2319e+05,5.2339e+05,0
5.2359e+05,5.2379e+05,0
5.2394e+05,5.2414e+05,0
5.2418e+05,5.2438e+05,0
5.2448e+05,5.2468e+05,0
5.2474e+05,5.2494e+05,0
5.2497e+05,5.2517e+05,0
5.2523e+05,5.2543e+05,0
5.2562e+05,5.2582e+05,0
5.2588e+05,5.2608e+05,0
5.2605e+05,5.2625e+05,2
5.2648e+05,5.2668e+05,0
5.2701e+05,5.2721e+05,0
5.2733e+05,5.2753e+05,0
5.2756e+05,5.2776e+05,0
5.2773e+05,5.2793e+05,2
5.2816e+05,5.2836e+05,0
5.2844e+05,5.2864e+05,0
5.2868e+05,5.2887e+05,0
5.2886e+05,5.2906e+05,2
5.2912e+05,5.2932e+05,0
5.2935e+05,5.2955e+05,0
5.2958e+05,5.2978e+05,0
5.2983e+05,5.3003e+05,0
5.3005e+05,5.3025e+05,0
5.3028e+05,5.3048e+05,0
5.3052e+05,5.3072e+05,0
5.3069e+05,5.3089e+05,2
5.3104e+05,5.3124e+05,0
5.313e+05,5.315e+05,0
5.3158e+05,5.3178e+05,0
5.3186e+05,5.3206e+05,0
5.3218e+05,5.3237e+05,0
5.3249e+05,5.3269e+05,0
5.3279e+05,5.3299e+05,0
5.3309e+05,5.3329e+05,0
5.3333e+05,5.3353e+05,0
5.3356e+05,5.3376e+05,0
5.338e+05,5.34e+05,0
5.3413e+05,5.3432e+05,0
5.3444e+05,5.3464e+05,0
5.3461e+05,5.3481e+05,2
5.3497e+05,5.3517e+05,0
5.3523e+05,5.3543e+05,0
5.354e+05,5.356e+05,2
5.3593e+05,5.3613e+05,0
5.3618e+05,5.3638e+05,0
5.3651e+05,5.3671e+05,0
5.3676e+05,5.3696e+05,0
5.372e+05,5.374e+05,0
5.376e+05,5.378e+05,0
5.3793e+05,5.3812e+05,0
5.3817e+05,5.3837e+05,0
5.3844e+05,5.3864e+05,0
5.3874e+05,5.3894e+05,0
5.39e+05,5.392e+05,0
5.3934e+05,5.3954e+05,0
5.3961e+05,5.3981e+05,0
5.3986e+05,5.4005e+05,0
5.401e+05,5.403e+05,0
5.4037e+05,5.4057e+05,0
5.4061e+05,5.4081e+05,0
5.4081e+05,5.4101e+05,2
5.4118e+05,5.4137e+05,0
5.4143e+05,5.4163e+05,0
5.4169e+05,5.4189e+05,0
5.4193e+05,5.4213e+05,0
5.4217e+05,5.4237e+05,0
5.4257e+05,5.4277e+05,0
5.4291e+05,5.4311e+05,0
5.4319e+05,5.4339e+05,0
5.4348e+05,5.4368e+05,0
5.4378e+05,5.4398e+05,0
5.4405e+05,5.4424e+05,0
5.4423e+05,5.4443e+05,2
5.4459e+05,5.4479e+05,0
5.449e+05,5.451e+05,0
5.4514e+05,5.4534e+05,0
5.4542e+05,5.4562e+05,0
5.4573e+05,5.4593e+05,0
5.4608e+05,5.4627e+05,0
5.4633e+05,5.4653e+05,0
5.4657e+05,5.4676e+05,0
5.4686e+05,5.4706e+05,0
5.4722e+05,5.4742e+05,0
5.4747e+05,5.4767e+05,0
5.4783e+05,5.4803e+05,0
5.4816e+05,5.4836e+05,0
5.4841e+05,5.4861e+05,0
5.4868e+05,5.4888e+05,0
5.4892e+05,5.4912e+05,0
5.4918e+05,5.4938e+05,0
5.4949e+05,5.4969e+05,0
5.4974e+05,5.4994e+05,0
5.5014e+05,5.5034e+05,0
5.5042e+05,5.5062e+05,0
5.5059e+05,5.5079e+05,2
5.5111e+05,5.5131e+05,0
5.5135e+05,5.5155e+05,0
5.5151e+05,5.5171e+05,2
5.5188e+05,5.5208e+05,0
5.5216e+05,5.5236e+05,0
5.5247e+05,5.5267e+05,0
5.5273e+05,5.5293e+05,0
5.5314e+05,5.5334e+05,0
5.534e+05,5.536e+05,0
5.5381e+05,5.5401e+05,0
5.541e+05,5.543e+05,0
5.5428e+05,5.5448e+05,2
5.5461e+05,5.5481e+05,0
5.5493e+05,5.5512e+05,0
5.5516e+05,5.5536e+05,0
5.5543e+05,5.5563e+05,0
5.5566e+05,5.5586e+05,0
5.5597e+05,5.5617e+05,0
5.5623e+05,5.5643e+05,0
5.5652e+05,5.5672e+05,0
5.5685e+05,5.5704e+05,0
5.5709e+05,5.5729e+05,0
5.5734e+05,5.5754e+05,0
5.5763e+05,5.5783e+05,0
5.5786e+05,5.5806e+05,0
5.5811e+05,5.5831e+05,0
5.5844e+05,5.5864e+05,0
5.5875e+05,5.5895e+05,0
5.5901e+05,5.5921e+05,0
5.5941e+05,5.5961e+05,0
5.597e+05,5.599e+05,0
5.5986e+05,5.6006e+05,2
5.6022e+05,5.6041e+05,0
5.6048e+05,5.6068e+05,0
5.6074e+05,5.6094e+05,0
5.6106e+05,5.6126e+05,0
5.6135e+05,5.6155e+05,0
5.6152e+05,5.6172e+05,2
5.6181e+05,5.6201e+05,0
5.6225e+05,5.6244e+05,0
5.6249e+05,5.6269e+05,0
5.6273e+05,5.6293e+05,0
5.6304e+05,5.6324e+05,0
5.6354e+05,5.6374e+05,0
5.6379e+05,5.6399e+05,0
5.6402e+05,5.6422e+05,0
5.642e+05,5.644e+05,2
5.6447e+05,5.6467e+05,0
5.6476e+05,5.6495e+05,0
5.6502e+05,5.6522e+05,0
5.6534e+05,5.6554e+05,0
5.6559e+05,5.6578e+05,0
5.659e+05,5.661e+05,0
5.6613e+05,5.6633e+05,0
5.6636e+05,5.6656e+05,0
5.6658e+05,5.6678e+05,0
5.6674e+05,5.6694e+05,2
5.6705e+05,5.6725e+05,0
5.6752e+05,5.6771e+05,0
5.6793e+05,5.6813e+05,0
5.6831e+05,5.685e+05,0
5.6855e+05,5.6875e+05,0
5.6877e+05,5.6897e+05,0
5.6903e+05,5.6923e+05,0
5.6933e+05,5.6952e+05,0
5.6957e+05,5.6977e+05,0
5.6981e+05,5.7001e+05,0
5.7009e+05,5.7029e+05,0
5.7041e+05,5.7061e+05,0
5.7066e+05,5.7086e+05,0
5.709e+05,5.711e+05,0
5.7132e+05,5.7152e+05,0
5.7169e+05,5.7189e+05,0
5.7197e+05,5.7217e+05,0
5.7223e+05,5.7243e+05,0
5.725e+05,5.727e+05,0
5.7273e+05,5.7292e+05,0
5.7288e+05,5.7308e+05,2
5.7319e+05,5.7339e+05,0
5.7344e+05,5.7364e+05,0
5.737e+05,5.739e+05,0
5.7398e+05,5.7418e+05,0
5.7425e+05,5.7445e+05,0
5.7465e+05,5.7485e+05,0
5.7489e+05,5.7509e+05,0
5.7519e+05,5.7539e+05,0
5.7545e+05,5.7565e+05,0
5.7571e+05,5.7591e+05,0
5.7604e+05,5.7624e+05,0
5.7655e+05,5.7675e+05,0
5.7686e+05,5.7706e+05,0
5.7708e+05,5.7728e+05,0
5.7732e+05,5.7752e+05,0
5.7755e+05,5.7775e+05,0
5.7778e+05,5.7798e+05,0
5.7802e+05,5.7822e+05,0
5.7836e+05,5.7856e+05,0
5.7861e+05,5.7881e+05,0
5.7884e+05,5.7904e+05,0
5.7907e+05,5.7927e+05,0
5.7932e+05,5.7951e+05,0
5.7959e+05,5.7979e+05,0
5.7984e+05,5.8004e+05,0
5.8022e+05,5.8042e+05,0
5.8069e+05,5.8088e+05,0
5.8093e+05,5.8113e+05,0
5.8116e+05,5.8136e+05,0
5.8139e+05,5.8159e+05,0
5.8169e+05,5.8189e+05,0
5.8195e+05,5.8215e+05,0
5.8226e+05,5.8246e+05,0
5.8253e+05,5.8273e+05,0
5.8277e+05,5.8297e+05,0
5.83e+05,5.832e+05,0
5.8322e+05,5.8342e+05,0
5.8343e+05,5.8363e+05,0
5.8359e+05,5.8379e+05,2
5.8392e+05,5.8412e+05,0
5.8425e+05,5.8445e+05,0
5.847e+05,5.849e+05,0
5.8495e+05,5.8515e+05,0
5.8513e+05,5.8533e+05,2
5.8539e+05,5.8558e+05,0
5.856e+05,5.858e+05,0
5.8581e+05,5.8601e+05,0
5.8604e+05,5.8624e+05,0
5.8627e+05,5.8647e+05,0
5.8644e+05,5.8664e+05,2
5.8682e+05,5.8702e+05,0
5.8706e+05,5.8726e+05,0
5.873e+05,5.8749e+05,0
5.8755e+05,5.8775e+05,0
5.8787e+05,5.8807e+05,0
5.8812e+05,5.8832e+05,0
5.8851e+05,5.8871e+05,0
5.8877e+05,5.8897e+05,0
5.8894e+05,5.8914e+05,2
5.8932e+05,5.8952e+05,0
5.8958e+05,5.8978e+05,0
5.8987e+05,5.9007e+05,0
5.9012e+05,5.9032e+05,0
5.9051e+05,5.9071e+05,0
5.9081e+05,5.91e+05,0
5.9098e+05,5.9118e+05,2
5.9137e+05,5.9157e+05,0
5.916e+05,5.918e+05,0
5.9182e+05,5.9202e+05,0
5.9208e+05,5.9227e+05,0
5.9234e+05,5.9254e+05,0
5.9273e+05,5.9293e+05,0
5.9299e+05,5.9319e+05,0
5.9316e+05,5.9336e+05,2
5.9349e+05,5.9369e+05,0
5.9372e+05,5.9392e+05,0
5.9395e+05,5.9415e+05,0
5.942e+05,5.9439e+05,0
5.9443e+05,5.9463e+05,0
5.9466e+05,5.9486e+05,0
5.949e+05,5.951e+05,0
5.9535e+05,5.9555e+05,0
5.9565e+05,5.9585e+05,0
5.9588e+05,5.9608e+05,0
5.9615e+05,5.9635e+05,0
5.9639e+05,5.9659e+05,0
5.967e+05,5.969e+05,0
5.9699e+05,5.9718e+05,0
5.9723e+05,5.9743e+05,0
5.9756e+05,5.9776e+05,0
5.9788e+05,5.9808e+05,0
5.9815e+05,5.9835e+05,0
5.9842e+05,5.9862e+05,0
5.9866e+05,5.9886e+05,0
5.9888e+05,5.9908e+05,0
5.9911e+05,5.9931e+05,0
5.9937e+05,5.9957e+05,0
5.9967e+05,5.9987e+05,0
5.9993e+05,6.0013e+05,0
6.002e+05,6.004e+05,0
6.0043e+05,6.0063e+05,0
6.007e+05,6.009e+05,0
6.0085e+05,6.0105e+05,2
6.0118e+05,6.0138e+05,0
6.0144e+05,6.0164e+05,0
6.0176e+05,6.0196e+05,0
6.02e+05,6.022e+05,0
6.0226e+05,6.0246e+05,0
6.0248e+05,6.0268e+05,0
6.0271e+05,6.0291e+05,0
6.0294e+05,6.0314e+05,0
6.0318e+05,6.0338e+05,0
6.036e+05,6.038e+05,0
6.0387e+05,6.0407e+05,0
6.0413e+05,6.0433e+05,0
6.0437e+05,6.0457e+05,0
6.0463e+05,6.0483e+05,0
6.0489e+05,6.0509e+05,0
6.0512e+05,6.0532e+05,0
6.0535e+05,6.0555e+05,0
6.0563e+05,6.0583e+05,0
6.0588e+05,6.0608e+05,0
6.062e+05,6.064e+05,0
6.0646e+05,6.0666e+05,0
6.067e+05,6.069e+05,0
6.0692e+05,6.0711e+05,0
6.0717e+05,6.0737e+05,0
6.0743e+05,6.0762e+05,0
6.0766e+05,6.0786e+05,0
6.0805e+05,6.0825e+05,0
6.083e+05,6.085e+05,0
6.0854e+05,6.0874e+05,0
6.0879e+05,6.0898e+05,0
6.091e+05,6.093e+05,0
6.0938e+05,6.0958e+05,0
6.0962e+05,6.0982e+05,0
6.0979e+05,6.0999e+05,2
6.1014e+05,6.1034e+05,0
6.1043e+05,6.1063e+05,0
6.1069e+05,6.1089e+05,0
6.1097e+05,6.1117e+05,0
6.113e+05,6.115e+05,0
6.117e+05,6.119e+05,0
6.1205e+05,6.1224e+05,0
6.1231e+05,6.125e+05,0
6.1259e+05,6.1279e+05,0
6.1291e+05,6.1311e+05,0
6.1314e+05,6.1334e+05,0
6.1337e+05,6.1357e+05,0
6.1359e+05,6.1379e+05,0
6.1384e+05,6.1404e+05,0
6.1427e+05,6.1447e+05,0
6.1453e+05,6.1473e+05,0
6.1483e+05,6.1502e+05,0
6.1509e+05,6.1529e+05,0
6.1524e+05,6.1544e+05,2
6.1564e+05,6.1584e+05,0
6.1604e+05,6.1624e+05,0
6.1631e+05,6.1651e+05,0
6.1667e+05,6.1687e+05,0
6.1715e+05,6.1735e+05,0
6.1759e+05,6.1779e+05,0
6.1783e+05,6.1803e+05,0
6.1807e+05,6.1827e+05,0
6.1844e+05,6.1864e+05,0
6.1869e+05,6.1889e+05,0
6.1887e+05,6.1906e+05,2
6.1923e+05,6.1943e+05,0
6.1957e+05,6.1977e+05,0
6.1979e+05,6.1999e+05,0
6.2002e+05,6.2022e+05,0
6.2024e+05,6.2044e+05,0
6.2045e+05,6.2065e+05,0
6.2075e+05,6.2095e+05,0
6.2101e+05,6.2121e+05,0
6.2125e+05,6.2145e+05,0
6.2169e+05,6.2189e+05,0
6.2193e+05,6.2213e+05,0
6.2217e+05,6.2237e+05,0
6.2261e+05,6.228e+05,0
6.2286e+05,6.2306e+05,0
6.2302e+05,6.2322e+05,2
6.2335e+05,6.2355e+05,0
6.2366e+05,6.2386e+05,0
6.2395e+05,6.2415e+05,0
6.2425e+05,6.2444e+05,0
6.2448e+05,6.2468e+05,0
6.2472e+05,6.2492e+05,0
6.25e+05,6.252e+05,0
6.2527e+05,6.2547e+05,0
6.2556e+05,6.2576e+05,0
6.2604e+05,6.2624e+05,0
6.2635e+05,6.2655e+05,0
6.2666e+05,6.2686e+05,0
6.2689e+05,6.2709e+05,0
6.2731e+05,6.2751e+05,0
6.2758e+05,6.2778e+05,0
6.2793e+05,6.2813e+05,0
6.2817e+05,6.2837e+05,0
6.2843e+05,6.2863e+05,0
6.2866e+05,6.2886e+05,0
6.2893e+05,6.2913e+05,0
6.2919e+05,6.2939e+05,0
6.2946e+05,6.2965e+05,0
6.2971e+05,6.2991e+05,0
6.3005e+05,6.3025e+05,0
6.3034e+05,6.3054e+05,0
6.3059e+05,6.3079e+05,0
6.3088e+05,6.3108e+05,0
6.312e+05,6.314e+05,0
6.3142e+05,6.3162e+05,0
6.3167e+05,6.3187e+05,0
6.3198e+05,6.3218e+05,0
6.3225e+05,6.3245e+05,0
6.3256e+05,6.3276e+05,0
6.328e+05,6.33e+05,0
6.3304e+05,6.3324e+05,0
6.3331e+05,6.3351e+05,0
6.3362e+05,6.3382e+05,0
6.3385e+05,6.3405e+05,0
6.3423e+05,6.3443e+05,0
6.3458e+05,6.3478e+05,0
6.3482e+05,6.3502e+05,0
6.3499e+05,6.3519e+05,2
6.3539e+05,6.3559e+05,0
6.358e+05,6.36e+05,0
6.3605e+05,6.3625e+05,0
6.3632e+05,6.3652e+05,0
6.3655e+05,6.3675e+05,0
6.3685e+05,6.3704e+05,0
6.3734e+05,6.3753e+05,0
6.376e+05,6.378e+05,0
6.3792e+05,6.3812e+05,0
6.3817e+05,6.3837e+05,0
6.3842e+05,6.3862e+05,0
6.3869e+05,6.3889e+05,0
6.3904e+05,6.3924e+05,0
6.3945e+05,6.3965e+05,0
6.3975e+05,6.3995e+05,0
6.3997e+05,6.4017e+05,0
6.402e+05,6.404e+05,0
6.4048e+05,6.4068e+05,0
6.4077e+05,6.4097e+05,0
6.4106e+05,6.4126e+05,0
6.4134e+05,6.4154e+05,0
6.4159e+05,6.4179e+05,0
6.4189e+05,6.4208e+05,0
6.4217e+05,6.4237e+05,0
6.4256e+05,6.4276e+05,0
6.4287e+05,6.4307e+05,0
6.4317e+05,6.4336e+05,0
6.4347e+05,6.4367e+05,0
6.4375e+05,6.4395e+05,0
6.4399e+05,6.4419e+05,0
6.4422e+05,6.4442e+05,0
6.4445e+05,6.4465e+05,0
6.4469e+05,6.4489e+05,0
6.4495e+05,6.4515e+05,0
6.4521e+05,6.4541e+05,0
6.455e+05,6.457e+05,0
6.4574e+05,6.4593e+05,0
6.4598e+05,6.4618e+05,0
6.4623e+05,6.4643e+05,0
6.4654e+05,6.4674e+05,0
6.4697e+05,6.4717e+05,0
6.4722e+05,6.4742e+05,0
6.4748e+05,6.4768e+05,0
6.4787e+05,6.4807e+05,0
6.4819e+05,6.4839e+05,0
6.4844e+05,6.4864e+05,0
6.4866e+05,6.4886e+05,0
6.4888e+05,6.4908e+05,0
6.4914e+05,6.4934e+05,0
6.4943e+05,6.4963e+05,0
6.4971e+05,6.4991e+05,0
